X [s],L DELTOID POSTERIOR: EMG 5 [V],L DELTOID POSTERIOR: EMG 5->filter (FilterSlidingRMS45) [V]
0.000000e+000,0.000000e+000,0.000000e+000
7.941176e-004,0.000000e+000,0.000000e+000
1.588235e-003,0.000000e+000,0.000000e+000
2.382353e-003,0.000000e+000,0.000000e+000
3.176471e-003,0.000000e+000,0.000000e+000
3.970588e-003,0.000000e+000,0.000000e+000
4.764706e-003,0.000000e+000,0.000000e+000
5.558824e-003,0.000000e+000,0.000000e+000
6.352941e-003,0.000000e+000,0.000000e+000
7.147059e-003,0.000000e+000,0.000000e+000
7.941176e-003,0.000000e+000,0.000000e+000
8.735294e-003,0.000000e+000,0.000000e+000
9.529412e-003,0.000000e+000,0.000000e+000
1.032353e-002,0.000000e+000,0.000000e+000
1.111765e-002,0.000000e+000,0.000000e+000
1.191176e-002,0.000000e+000,0.000000e+000
1.270588e-002,0.000000e+000,0.000000e+000
1.350000e-002,0.000000e+000,0.000000e+000
1.429412e-002,0.000000e+000,0.000000e+000
1.508824e-002,0.000000e+000,0.000000e+000
1.588235e-002,0.000000e+000,0.000000e+000
1.667647e-002,0.000000e+000,0.000000e+000
1.747059e-002,0.000000e+000,0.000000e+000
1.826471e-002,0.000000e+000,0.000000e+000
1.905882e-002,0.000000e+000,0.000000e+000
1.985294e-002,0.000000e+000,0.000000e+000
2.064706e-002,0.000000e+000,0.000000e+000
2.144118e-002,0.000000e+000,0.000000e+000
2.223529e-002,0.000000e+000,0.000000e+000
2.302941e-002,0.000000e+000,0.000000e+000
2.382353e-002,0.000000e+000,0.000000e+000
2.461765e-002,0.000000e+000,0.000000e+000
2.541176e-002,0.000000e+000,0.000000e+000
2.620588e-002,0.000000e+000,0.000000e+000
2.700000e-002,0.000000e+000,0.000000e+000
2.779412e-002,0.000000e+000,0.000000e+000
2.858824e-002,0.000000e+000,0.000000e+000
2.938235e-002,0.000000e+000,0.000000e+000
3.017647e-002,0.000000e+000,0.000000e+000
3.097059e-002,0.000000e+000,0.000000e+000
3.176471e-002,0.000000e+000,0.000000e+000
3.255882e-002,0.000000e+000,0.000000e+000
3.335294e-002,0.000000e+000,0.000000e+000
3.414706e-002,0.000000e+000,0.000000e+000
3.494118e-002,0.000000e+000,0.000000e+000
3.573529e-002,0.000000e+000,0.000000e+000
3.652941e-002,0.000000e+000,0.000000e+000
3.732353e-002,0.000000e+000,0.000000e+000
3.811765e-002,0.000000e+000,0.000000e+000
3.891176e-002,0.000000e+000,0.000000e+000
3.970588e-002,0.000000e+000,0.000000e+000
4.050000e-002,0.000000e+000,0.000000e+000
4.129412e-002,0.000000e+000,0.000000e+000
4.208824e-002,0.000000e+000,0.000000e+000
4.288235e-002,0.000000e+000,0.000000e+000
4.367647e-002,0.000000e+000,0.000000e+000
4.447059e-002,0.000000e+000,0.000000e+000
4.526471e-002,0.000000e+000,0.000000e+000
4.605882e-002,0.000000e+000,0.000000e+000
4.685294e-002,0.000000e+000,0.000000e+000
4.764706e-002,0.000000e+000,0.000000e+000
4.844118e-002,0.000000e+000,0.000000e+000
4.923529e-002,0.000000e+000,0.000000e+000
5.002941e-002,0.000000e+000,0.000000e+000
5.082353e-002,0.000000e+000,0.000000e+000
5.161765e-002,0.000000e+000,0.000000e+000
5.241176e-002,0.000000e+000,0.000000e+000
5.320588e-002,0.000000e+000,0.000000e+000
5.400000e-002,0.000000e+000,0.000000e+000
5.479412e-002,0.000000e+000,0.000000e+000
5.558824e-002,0.000000e+000,0.000000e+000
5.638235e-002,0.000000e+000,0.000000e+000
5.717647e-002,0.000000e+000,0.000000e+000
5.797059e-002,0.000000e+000,0.000000e+000
5.876471e-002,0.000000e+000,0.000000e+000
5.955882e-002,0.000000e+000,0.000000e+000
6.035294e-002,0.000000e+000,0.000000e+000
6.114706e-002,0.000000e+000,0.000000e+000
6.194118e-002,0.000000e+000,0.000000e+000
6.273529e-002,0.000000e+000,0.000000e+000
6.352941e-002,0.000000e+000,0.000000e+000
6.432353e-002,0.000000e+000,0.000000e+000
6.511765e-002,0.000000e+000,0.000000e+000
6.591176e-002,0.000000e+000,0.000000e+000
6.670588e-002,0.000000e+000,0.000000e+000
6.750000e-002,0.000000e+000,0.000000e+000
6.829412e-002,0.000000e+000,0.000000e+000
6.908824e-002,0.000000e+000,0.000000e+000
6.988235e-002,0.000000e+000,0.000000e+000
7.067647e-002,0.000000e+000,0.000000e+000
7.147059e-002,0.000000e+000,0.000000e+000
7.226471e-002,0.000000e+000,0.000000e+000
7.305882e-002,0.000000e+000,0.000000e+000
7.385294e-002,0.000000e+000,0.000000e+000
7.464706e-002,0.000000e+000,0.000000e+000
7.544118e-002,0.000000e+000,0.000000e+000
7.623529e-002,0.000000e+000,0.000000e+000
7.702941e-002,0.000000e+000,0.000000e+000
7.782353e-002,0.000000e+000,0.000000e+000
7.861765e-002,0.000000e+000,0.000000e+000
7.941176e-002,0.000000e+000,0.000000e+000
8.020588e-002,0.000000e+000,0.000000e+000
8.100000e-002,0.000000e+000,0.000000e+000
8.179412e-002,0.000000e+000,0.000000e+000
8.258824e-002,0.000000e+000,0.000000e+000
8.338235e-002,0.000000e+000,0.000000e+000
8.417647e-002,0.000000e+000,0.000000e+000
8.497059e-002,0.000000e+000,0.000000e+000
8.576471e-002,0.000000e+000,0.000000e+000
8.655882e-002,0.000000e+000,0.000000e+000
8.735294e-002,0.000000e+000,0.000000e+000
8.814706e-002,0.000000e+000,0.000000e+000
8.894118e-002,0.000000e+000,0.000000e+000
8.973529e-002,0.000000e+000,0.000000e+000
9.052941e-002,0.000000e+000,0.000000e+000
9.132353e-002,0.000000e+000,0.000000e+000
9.211765e-002,0.000000e+000,0.000000e+000
9.291176e-002,0.000000e+000,0.000000e+000
9.370588e-002,0.000000e+000,0.000000e+000
9.450000e-002,-1.091020e-005,0.000000e+000
9.529412e-002,-7.888914e-006,0.000000e+000
9.608824e-002,-1.393149e-005,0.000000e+000
9.688235e-002,-1.359579e-005,0.000000e+000
9.767647e-002,-1.393149e-005,0.000000e+000
9.847059e-002,-1.359579e-005,0.000000e+000
9.926471e-002,-1.124590e-005,0.000000e+000
1.000588e-001,-1.426719e-005,0.000000e+000
1.008529e-001,-1.426719e-005,0.000000e+000
1.016471e-001,-1.594568e-005,0.000000e+000
1.024412e-001,-2.030976e-005,0.000000e+000
1.032353e-001,-1.930266e-005,0.000000e+000
1.040294e-001,-1.359579e-005,0.000000e+000
1.048235e-001,-9.063859e-006,0.000000e+000
1.056176e-001,-1.124590e-005,0.000000e+000
1.064118e-001,-1.493858e-005,0.000000e+000
1.072059e-001,-1.997406e-005,0.000000e+000
1.080000e-001,-2.198825e-005,0.000000e+000
1.087941e-001,-2.030976e-005,0.000000e+000
1.095882e-001,-2.030976e-005,0.000000e+000
1.103824e-001,-1.930266e-005,0.000000e+000
1.111765e-001,-1.762417e-005,0.000000e+000
1.119706e-001,-1.560998e-005,0.000000e+000
1.127647e-001,-1.225299e-005,0.000000e+000
1.135588e-001,-1.225299e-005,0.000000e+000
1.143529e-001,-8.560311e-006,0.000000e+000
1.151471e-001,-1.023880e-005,0.000000e+000
1.159412e-001,-1.292439e-005,0.000000e+000
1.167353e-001,-1.292439e-005,0.000000e+000
1.175294e-001,-1.326009e-005,0.000000e+000
1.183235e-001,-1.560998e-005,0.000000e+000
1.191176e-001,-1.762417e-005,0.000000e+000
1.199118e-001,-1.628138e-005,0.000000e+000
1.207059e-001,-1.762417e-005,0.000000e+000
1.215000e-001,-1.460288e-005,0.000000e+000
1.222941e-001,-1.460288e-005,0.000000e+000
1.230882e-001,-1.443504e-005,0.000000e+000
1.238824e-001,-1.242084e-005,0.000000e+000
1.246765e-001,-1.426719e-005,0.000000e+000
1.254706e-001,-1.560998e-005,0.000000e+000
1.262647e-001,-1.510643e-005,0.000000e+000
1.270588e-001,-1.762417e-005,0.000000e+000
1.278529e-001,-1.628138e-005,0.000000e+000
1.286471e-001,-1.762417e-005,0.000000e+000
1.294412e-001,-1.930266e-005,0.000000e+000
1.302353e-001,-1.963836e-005,0.000000e+000
1.310294e-001,-1.762417e-005,0.000000e+000
1.318235e-001,-1.762417e-005,0.000000e+000
1.326176e-001,-1.695277e-005,0.000000e+000
1.334118e-001,-1.829557e-005,0.000000e+000
1.342059e-001,-1.560998e-005,0.000000e+000
1.350000e-001,-1.560998e-005,0.000000e+000
1.357941e-001,-1.393149e-005,0.000000e+000
1.365882e-001,-1.493858e-005,0.000000e+000
1.373824e-001,-1.091020e-005,0.000000e+000
1.381765e-001,-6.210422e-006,0.000000e+000
1.389706e-001,-7.553216e-006,0.000000e+000
1.397647e-001,-6.210422e-006,0.000000e+000
1.405588e-001,-1.091020e-005,0.000000e+000
1.413529e-001,-1.359579e-005,0.000000e+000
1.421471e-001,-1.292439e-005,0.000000e+000
1.429412e-001,-1.091020e-005,0.000000e+000
1.437353e-001,-1.158160e-005,0.000000e+000
1.445294e-001,-1.225299e-005,0.000000e+000
1.453235e-001,-1.292439e-005,0.000000e+000
1.461176e-001,-1.695277e-005,0.000000e+000
1.469118e-001,-1.980621e-005,0.000000e+000
1.477059e-001,-1.896696e-005,0.000000e+000
1.485000e-001,-1.930266e-005,0.000000e+000
1.492941e-001,-1.628138e-005,0.000000e+000
1.500882e-001,-1.426719e-005,0.000000e+000
1.508824e-001,-1.560998e-005,0.000000e+000
1.516765e-001,-1.762417e-005,0.000000e+000
1.524706e-001,-1.628138e-005,0.000000e+000
1.532647e-001,-1.661708e-005,0.000000e+000
1.540588e-001,-1.762417e-005,0.000000e+000
1.548529e-001,-1.762417e-005,0.000000e+000
1.556471e-001,-1.628138e-005,0.000000e+000
1.564412e-001,-1.493858e-005,0.000000e+000
1.572353e-001,-1.359579e-005,0.000000e+000
1.580294e-001,-1.560998e-005,0.000000e+000
1.588235e-001,-1.493858e-005,0.000000e+000
1.596176e-001,-1.292439e-005,0.000000e+000
1.604118e-001,-1.326009e-005,0.000000e+000
1.612059e-001,-1.359579e-005,0.000000e+000
1.620000e-001,-1.057450e-005,0.000000e+000
1.627941e-001,-9.063859e-006,0.000000e+000
1.635882e-001,-1.091020e-005,0.000000e+000
1.643824e-001,-1.191730e-005,0.000000e+000
1.651765e-001,-1.258869e-005,0.000000e+000
1.659706e-001,-1.225299e-005,0.000000e+000
1.667647e-001,-1.460288e-005,0.000000e+000
1.675588e-001,-1.661708e-005,0.000000e+000
1.683529e-001,-1.644922e-005,0.000000e+000
1.691471e-001,-1.661708e-005,0.000000e+000
1.699412e-001,-1.493858e-005,0.000000e+000
1.707353e-001,-1.225299e-005,0.000000e+000
1.715294e-001,-1.091020e-005,0.000000e+000
1.723235e-001,-9.567407e-006,0.000000e+000
1.731176e-001,-5.874723e-006,0.000000e+000
1.739118e-001,-9.567407e-006,0.000000e+000
1.747059e-001,-1.124590e-005,0.000000e+000
1.755000e-001,-1.124590e-005,0.000000e+000
1.762941e-001,-9.231709e-006,0.000000e+000
1.770882e-001,-9.063859e-006,0.000000e+000
1.778824e-001,-9.567407e-006,0.000000e+000
1.786765e-001,-1.225299e-005,0.000000e+000
1.794706e-001,-1.023880e-005,0.000000e+000
1.802647e-001,-1.124590e-005,0.000000e+000
1.810588e-001,-1.225299e-005,0.000000e+000
1.818529e-001,-9.231709e-006,0.000000e+000
1.826471e-001,-1.040665e-005,0.000000e+000
1.834412e-001,-1.191730e-005,0.000000e+000
1.842353e-001,-9.567407e-006,0.000000e+000
1.850294e-001,-1.057450e-005,0.000000e+000
1.858235e-001,-1.023880e-005,0.000000e+000
1.866176e-001,-1.158160e-005,0.000000e+000
1.874118e-001,-1.258869e-005,0.000000e+000
1.882059e-001,-1.158160e-005,0.000000e+000
1.890000e-001,-1.829557e-005,0.000000e+000
1.897941e-001,-2.098116e-005,0.000000e+000
1.905882e-001,-1.795987e-005,0.000000e+000
1.913824e-001,-1.644922e-005,0.000000e+000
1.921765e-001,-1.829557e-005,0.000000e+000
1.929706e-001,-1.829557e-005,0.000000e+000
1.937647e-001,-1.661708e-005,0.000000e+000
1.945588e-001,-1.863127e-005,0.000000e+000
1.953529e-001,-1.896696e-005,0.000000e+000
1.961471e-001,-2.047761e-005,0.000000e+000
1.969412e-001,-1.829557e-005,0.000000e+000
1.977353e-001,-1.795987e-005,0.000000e+000
1.985294e-001,-1.896696e-005,0.000000e+000
1.993235e-001,-1.896696e-005,0.000000e+000
2.001176e-001,-1.577783e-005,0.000000e+000
2.009118e-001,-1.628138e-005,0.000000e+000
2.017059e-001,-1.577783e-005,0.000000e+000
2.025000e-001,-1.426719e-005,0.000000e+000
2.032941e-001,-1.594568e-005,0.000000e+000
2.040882e-001,-1.762417e-005,0.000000e+000
2.048824e-001,-1.896696e-005,0.000000e+000
2.056765e-001,-1.896696e-005,0.000000e+000
2.064706e-001,-1.896696e-005,0.000000e+000
2.072647e-001,-1.560998e-005,0.000000e+000
2.080588e-001,-1.762417e-005,0.000000e+000
2.088529e-001,-1.829557e-005,0.000000e+000
2.096471e-001,-1.896696e-005,0.000000e+000
2.104412e-001,-1.661708e-005,0.000000e+000
2.112353e-001,-1.225299e-005,0.000000e+000
2.120294e-001,-8.392462e-006,0.000000e+000
2.128235e-001,-5.539025e-006,0.000000e+000
2.136176e-001,-7.217518e-006,0.000000e+000
2.144118e-001,-8.896010e-006,0.000000e+000
2.152059e-001,-1.023880e-005,0.000000e+000
2.160000e-001,-1.107805e-005,0.000000e+000
2.167941e-001,-1.258869e-005,0.000000e+000
2.175882e-001,-1.560998e-005,0.000000e+000
2.183824e-001,-1.493858e-005,0.000000e+000
2.191765e-001,-1.661708e-005,0.000000e+000
2.199706e-001,-1.493858e-005,0.000000e+000
2.207647e-001,-1.225299e-005,0.000000e+000
2.215588e-001,-1.225299e-005,0.000000e+000
2.223529e-001,-1.326009e-005,0.000000e+000
2.231471e-001,-1.628138e-005,0.000000e+000
2.239412e-001,-1.527428e-005,0.000000e+000
2.247353e-001,-1.359579e-005,0.000000e+000
2.255294e-001,-1.426719e-005,0.000000e+000
2.263235e-001,-1.560998e-005,0.000000e+000
2.271176e-001,-1.258869e-005,0.000000e+000
2.279118e-001,-1.359579e-005,0.000000e+000
2.287059e-001,-1.493858e-005,0.000000e+000
2.295000e-001,-1.510643e-005,0.000000e+000
2.302941e-001,-1.661708e-005,0.000000e+000
2.310882e-001,-1.628138e-005,0.000000e+000
2.318824e-001,-1.896696e-005,0.000000e+000
2.326765e-001,-1.829557e-005,0.000000e+000
2.334706e-001,-1.628138e-005,0.000000e+000
2.342647e-001,-1.393149e-005,0.000000e+000
2.350588e-001,-1.628138e-005,0.000000e+000
2.358529e-001,-1.695277e-005,0.000000e+000
2.366471e-001,-1.661708e-005,0.000000e+000
2.374412e-001,-1.560998e-005,0.000000e+000
2.382353e-001,-1.460288e-005,0.000000e+000
2.390294e-001,-1.661708e-005,0.000000e+000
2.398235e-001,-1.493858e-005,0.000000e+000
2.406176e-001,-1.460288e-005,0.000000e+000
2.414118e-001,-1.258869e-005,0.000000e+000
2.422059e-001,-1.493858e-005,0.000000e+000
2.430000e-001,-1.426719e-005,0.000000e+000
2.437941e-001,-1.560998e-005,0.000000e+000
2.445882e-001,-1.695277e-005,0.000000e+000
2.453824e-001,-1.644922e-005,0.000000e+000
2.461765e-001,-1.493858e-005,0.000000e+000
2.469706e-001,-1.426719e-005,0.000000e+000
2.477647e-001,-1.426719e-005,0.000000e+000
2.485588e-001,-1.510643e-005,0.000000e+000
2.493529e-001,-1.174945e-005,1.174945e-005
2.501471e-001,-1.124590e-005,1.176815e-005
2.509412e-001,-8.224612e-006,1.178525e-005
2.517353e-001,-7.553216e-006,1.179438e-005
2.525294e-001,-1.091020e-005,1.180208e-005
2.533235e-001,-8.560311e-006,1.181813e-005
2.541176e-001,-8.224612e-006,1.182800e-005
2.549118e-001,-1.426719e-005,1.183710e-005
2.557059e-001,-1.527428e-005,1.186445e-005
2.565000e-001,-1.695277e-005,1.189573e-005
2.572941e-001,-1.493858e-005,1.193413e-005
2.580882e-001,-1.493858e-005,1.196387e-005
2.588824e-001,-1.712062e-005,1.199354e-005
2.596765e-001,-1.963836e-005,1.203239e-005
2.604706e-001,-1.695277e-005,1.208332e-005
2.612647e-001,-1.376364e-005,1.212114e-005
2.620588e-001,-1.628138e-005,1.214600e-005
2.628529e-001,-1.762417e-005,1.218070e-005
2.636471e-001,-1.695277e-005,1.222124e-005
2.644412e-001,-1.762417e-005,1.225863e-005
2.652353e-001,-1.577783e-005,1.229891e-005
2.660294e-001,-1.896696e-005,1.233110e-005
2.668235e-001,-2.098116e-005,1.237746e-005
2.676176e-001,-1.628138e-005,1.243397e-005
2.684118e-001,-1.393149e-005,1.246787e-005
2.692059e-001,-1.644922e-005,1.249263e-005
2.700000e-001,-1.376364e-005,1.252707e-005
2.707941e-001,-1.359579e-005,1.255113e-005
2.715882e-001,-1.493858e-005,1.257456e-005
2.723824e-001,-1.258869e-005,1.260279e-005
2.731765e-001,-1.158160e-005,1.262280e-005
2.739706e-001,-9.567407e-006,1.263971e-005
2.747647e-001,-1.426719e-005,1.265123e-005
2.755588e-001,-1.661708e-005,1.267683e-005
2.763529e-001,-1.359579e-005,1.271146e-005
2.771471e-001,-1.359579e-005,1.273460e-005
2.779412e-001,-1.376364e-005,1.275769e-005
2.787353e-001,-1.426719e-005,1.278131e-005
2.795294e-001,-1.644922e-005,1.280665e-005
2.803235e-001,-1.560998e-005,1.284025e-005
2.811176e-001,-1.779202e-005,1.287043e-005
2.819118e-001,-1.762417e-005,1.290954e-005
2.827059e-001,-1.292439e-005,1.294779e-005
2.835000e-001,-1.158160e-005,1.296832e-005
2.842941e-001,-1.258869e-005,1.298478e-005
2.850882e-001,-1.258869e-005,1.300420e-005
2.858824e-001,-1.057450e-005,1.302359e-005
2.866765e-001,-6.881819e-006,1.303725e-005
2.874706e-001,-6.378271e-006,1.304304e-005
2.882647e-001,-5.874723e-006,1.304800e-005
2.890588e-001,-4.867628e-006,1.305221e-005
2.898529e-001,-5.203327e-006,1.305510e-005
2.906471e-001,-9.567407e-006,1.305841e-005
2.914412e-001,-1.225299e-005,1.306956e-005
2.922353e-001,-1.225299e-005,1.308784e-005
2.930294e-001,-1.124590e-005,1.310610e-005
2.938235e-001,-1.393149e-005,1.312145e-005
2.946176e-001,-1.225299e-005,1.314498e-005
2.954118e-001,-1.258869e-005,1.316316e-005
2.962059e-001,-1.762417e-005,1.318232e-005
2.970000e-001,-1.863127e-005,1.321978e-005
2.977941e-001,-2.098116e-005,1.326153e-005
2.985882e-001,-1.963836e-005,1.331428e-005
2.993824e-001,-2.030976e-005,1.336033e-005
3.001765e-001,-2.232395e-005,1.340940e-005
3.009706e-001,-2.131685e-005,1.346845e-005
3.017647e-001,-2.165255e-005,1.352207e-005
3.025588e-001,-2.333104e-005,1.357716e-005
3.033529e-001,-2.299535e-005,1.364086e-005
3.041471e-001,-2.098116e-005,1.370244e-005
3.049412e-001,-1.695277e-005,1.375351e-005
3.057353e-001,-1.493858e-005,1.378674e-005
3.065294e-001,-1.225299e-005,1.381249e-005
3.073235e-001,-1.057450e-005,1.382979e-005
3.081176e-001,-1.292439e-005,1.384266e-005
3.089118e-001,-1.628138e-005,1.386186e-005
3.097059e-001,-1.359579e-005,1.389228e-005
3.105000e-001,-1.443504e-005,1.391345e-005
3.112941e-001,-1.460288e-005,1.393728e-005
3.120882e-001,-1.493858e-005,1.396162e-005
3.128824e-001,-1.560998e-005,1.398705e-005
3.136765e-001,-1.292439e-005,1.401476e-005
3.144706e-001,-1.040665e-005,1.403373e-005
3.152647e-001,-9.903105e-006,1.404601e-005
3.160588e-001,-1.158160e-005,1.405712e-005
3.168529e-001,-9.903105e-006,1.407231e-005
3.176471e-001,-9.567407e-006,1.408340e-005
3.184412e-001,-8.896010e-006,1.409375e-005
3.192353e-001,-8.560311e-006,1.410269e-005
3.200294e-001,-1.091020e-005,1.411096e-005
3.208235e-001,-1.091020e-005,1.412438e-005
3.216176e-001,-1.091020e-005,1.413780e-005
3.224118e-001,-1.124590e-005,1.415120e-005
3.232059e-001,-8.896010e-006,1.416542e-005
3.240000e-001,-1.191730e-005,1.417431e-005
3.247941e-001,-1.158160e-005,1.419026e-005
3.255882e-001,-1.091020e-005,1.420530e-005
3.263824e-001,-8.896010e-006,1.421864e-005
3.271765e-001,-9.063859e-006,1.422750e-005
3.279706e-001,-7.888914e-006,1.423669e-005
3.287647e-001,-2.349889e-006,1.424365e-005
3.295588e-001,-9.735256e-006,1.424427e-005
3.303529e-001,-1.661708e-005,1.425486e-005
3.311471e-001,-1.661708e-005,1.428567e-005
3.319412e-001,-1.527428e-005,1.431642e-005
3.327353e-001,-1.460288e-005,1.434234e-005
3.335294e-001,-1.762417e-005,1.436600e-005
3.343235e-001,-1.896696e-005,1.440039e-005
3.351176e-001,-1.795987e-005,1.444011e-005
3.359118e-001,-1.795987e-005,1.447564e-005
3.367059e-001,-1.846342e-005,1.451108e-005
3.375000e-001,-1.695277e-005,1.454844e-005
3.382941e-001,-1.661708e-005,1.457986e-005
3.390882e-001,-1.762417e-005,1.460998e-005
3.398824e-001,-1.493858e-005,1.464380e-005
3.406765e-001,-1.493858e-005,1.466804e-005
3.414706e-001,-1.644922e-005,1.469225e-005
3.422647e-001,-1.661708e-005,1.472155e-005
3.430588e-001,-1.628138e-005,1.475138e-005
3.438529e-001,-1.661708e-005,1.477997e-005
3.446471e-001,-1.426719e-005,1.479689e-005
3.454412e-001,-1.292439e-005,1.481209e-005
3.462353e-001,-9.903105e-006,1.480918e-005
3.470294e-001,-1.326009e-005,1.479985e-005
3.478235e-001,-1.309224e-005,1.479788e-005
3.486176e-001,-1.124590e-005,1.479644e-005
3.494118e-001,-1.493858e-005,1.479644e-005
3.502059e-001,-1.695277e-005,1.479855e-005
3.510000e-001,-1.829557e-005,1.480757e-005
3.517941e-001,-2.030976e-005,1.481622e-005
3.525882e-001,-1.762417e-005,1.481622e-005
3.533824e-001,-1.661708e-005,1.480955e-005
3.541765e-001,-1.795987e-005,1.481936e-005
3.549706e-001,-1.896696e-005,1.484517e-005
3.557647e-001,-1.762417e-005,1.487017e-005
3.565588e-001,-1.695277e-005,1.487954e-005
3.573529e-001,-1.527428e-005,1.486759e-005
3.581471e-001,-1.460288e-005,1.484077e-005
3.589412e-001,-1.393149e-005,1.481938e-005
3.597353e-001,-1.258869e-005,1.479589e-005
3.605294e-001,-1.359579e-005,1.477283e-005
3.613235e-001,-1.359579e-005,1.475927e-005
3.621176e-001,-1.527428e-005,1.475292e-005
3.629118e-001,-1.712062e-005,1.476190e-005
3.637059e-001,-1.527428e-005,1.477731e-005
3.645000e-001,-1.225299e-005,1.479454e-005
3.652941e-001,-1.359579e-005,1.479942e-005
3.660882e-001,-1.560998e-005,1.480134e-005
3.668824e-001,-1.762417e-005,1.480958e-005
3.676765e-001,-1.762417e-005,1.482406e-005
3.684706e-001,-2.098116e-005,1.483125e-005
3.692647e-001,-1.762417e-005,1.484516e-005
3.700588e-001,-1.359579e-005,1.485004e-005
3.708529e-001,-1.292439e-005,1.483655e-005
3.716471e-001,-1.023880e-005,1.483159e-005
3.724412e-001,-8.224612e-006,1.481995e-005
3.732353e-001,-8.896010e-006,1.480482e-005
3.740294e-001,-8.392462e-006,1.479673e-005
3.748235e-001,-9.903105e-006,1.478240e-005
3.756176e-001,-1.292439e-005,1.476671e-005
3.764118e-001,-1.393149e-005,1.476011e-005
3.772059e-001,-1.628138e-005,1.474754e-005
3.780000e-001,-1.695277e-005,1.474754e-005
3.787941e-001,-1.560998e-005,1.474503e-005
3.795882e-001,-1.560998e-005,1.473110e-005
3.803824e-001,-1.695277e-005,1.471574e-005
3.811765e-001,-1.762417e-005,1.471323e-005
3.819706e-001,-1.493858e-005,1.471323e-005
3.827647e-001,-1.493858e-005,1.470628e-005
3.835588e-001,-1.426719e-005,1.469419e-005
3.843529e-001,-1.225299e-005,1.468984e-005
3.851471e-001,-1.393149e-005,1.467970e-005
3.859412e-001,-9.567407e-006,1.467970e-005
3.867353e-001,-8.392462e-006,1.466542e-005
3.875294e-001,-1.158160e-005,1.466014e-005
3.883235e-001,-1.023880e-005,1.467052e-005
3.891176e-001,-1.225299e-005,1.467570e-005
3.899118e-001,-1.242084e-005,1.468780e-005
3.907059e-001,-1.326009e-005,1.469162e-005
3.915000e-001,-1.124590e-005,1.469064e-005
3.922941e-001,-1.141375e-005,1.468625e-005
3.930882e-001,-1.560998e-005,1.468746e-005
3.938824e-001,-1.628138e-005,1.469934e-005
3.946765e-001,-1.594568e-005,1.471178e-005
3.954706e-001,-1.376364e-005,1.472122e-005
3.962647e-001,-1.560998e-005,1.471062e-005
3.970588e-001,-1.560998e-005,1.469452e-005
3.978529e-001,-1.426719e-005,1.468194e-005
3.986471e-001,-1.393149e-005,1.466360e-005
3.994412e-001,-1.359579e-005,1.465588e-005
4.002353e-001,-1.443504e-005,1.465385e-005
4.010294e-001,-1.628138e-005,1.465002e-005
4.018235e-001,-1.896696e-005,1.464507e-005
4.026176e-001,-1.712062e-005,1.465535e-005
4.034118e-001,-2.030976e-005,1.465720e-005
4.042059e-001,-1.728847e-005,1.466826e-005
4.050000e-001,-1.762417e-005,1.466699e-005
4.057941e-001,-2.030976e-005,1.467193e-005
4.065882e-001,-1.560998e-005,1.469247e-005
4.073824e-001,-1.443504e-005,1.469884e-005
4.081765e-001,-1.762417e-005,1.469502e-005
4.089706e-001,-2.030976e-005,1.470449e-005
4.097647e-001,-1.829557e-005,1.473105e-005
4.105588e-001,-1.393149e-005,1.474821e-005
4.113529e-001,-1.628138e-005,1.474921e-005
4.121471e-001,-1.493858e-005,1.476575e-005
4.129412e-001,-1.359579e-005,1.478095e-005
4.137353e-001,-1.191730e-005,1.478804e-005
4.145294e-001,-9.903105e-006,1.478803e-005
4.153235e-001,-1.091020e-005,1.478153e-005
4.161176e-001,-1.023880e-005,1.477818e-005
4.169118e-001,-7.553216e-006,1.476649e-005
4.177059e-001,-1.124590e-005,1.474285e-005
4.185000e-001,-1.191730e-005,1.472728e-005
4.192941e-001,-8.896010e-006,1.471277e-005
4.200882e-001,-1.091020e-005,1.469717e-005
4.208824e-001,-9.231709e-006,1.469380e-005
4.216765e-001,-6.881819e-006,1.469014e-005
4.224706e-001,-7.888914e-006,1.468535e-005
4.232647e-001,-1.158160e-005,1.468836e-005
4.240588e-001,-1.577783e-005,1.469297e-005
4.248529e-001,-1.326009e-005,1.470624e-005
4.256471e-001,-1.225299e-005,1.471158e-005
4.264412e-001,-9.903105e-006,1.471861e-005
4.272353e-001,-1.191730e-005,1.472033e-005
4.280294e-001,-1.107805e-005,1.472579e-005
4.288235e-001,-1.359579e-005,1.472283e-005
4.296176e-001,-1.292439e-005,1.473148e-005
4.304118e-001,-1.292439e-005,1.473586e-005
4.312059e-001,-1.577783e-005,1.473769e-005
4.320000e-001,-1.829557e-005,1.475537e-005
4.327941e-001,-1.510643e-005,1.477978e-005
4.335882e-001,-1.527428e-005,1.478906e-005
4.343824e-001,-1.661708e-005,1.480432e-005
4.351765e-001,-1.661708e-005,1.482198e-005
4.359706e-001,-1.712062e-005,1.484037e-005
4.367647e-001,-1.527428e-005,1.485742e-005
4.375588e-001,-1.493858e-005,1.486544e-005
4.383529e-001,-1.493858e-005,1.487497e-005
4.391471e-001,-1.292439e-005,1.486303e-005
4.399412e-001,-1.158160e-005,1.483373e-005
4.407353e-001,-1.208515e-005,1.481349e-005
4.415294e-001,-1.493858e-005,1.480010e-005
4.423235e-001,-1.493858e-005,1.478809e-005
4.431176e-001,-1.359579e-005,1.477607e-005
4.439118e-001,-1.426719e-005,1.476623e-005
4.447059e-001,-1.242084e-005,1.475074e-005
4.455000e-001,-1.292439e-005,1.472854e-005
4.462941e-001,-1.661708e-005,1.470124e-005
4.470882e-001,-1.762417e-005,1.469489e-005
4.478824e-001,-1.560998e-005,1.469360e-005
4.486765e-001,-1.510643e-005,1.468101e-005
4.494706e-001,-1.225299e-005,1.466674e-005
4.502647e-001,-1.057450e-005,1.465601e-005
4.510588e-001,-8.896010e-006,1.463935e-005
4.518529e-001,-8.224612e-006,1.462087e-005
4.526471e-001,-1.091020e-005,1.460606e-005
4.534412e-001,-1.258869e-005,1.459131e-005
4.542353e-001,-1.426719e-005,1.457470e-005
4.550294e-001,-1.359579e-005,1.455762e-005
4.558235e-001,-1.493858e-005,1.453848e-005
4.566176e-001,-1.460288e-005,1.452351e-005
4.574118e-001,-1.393149e-005,1.452017e-005
4.582059e-001,-1.174945e-005,1.450739e-005
4.590000e-001,-1.225299e-005,1.448578e-005
4.597941e-001,-1.829557e-005,1.446273e-005
4.605882e-001,-1.594568e-005,1.446918e-005
4.613824e-001,-1.829557e-005,1.448063e-005
4.621765e-001,-2.030976e-005,1.450966e-005
4.629706e-001,-1.829557e-005,1.455151e-005
4.637647e-001,-1.628138e-005,1.458240e-005
4.645588e-001,-1.594568e-005,1.460269e-005
4.653529e-001,-1.930266e-005,1.461898e-005
4.661471e-001,-2.098116e-005,1.464617e-005
4.669412e-001,-1.644922e-005,1.467677e-005
4.677353e-001,-1.426719e-005,1.467969e-005
4.685294e-001,-1.426719e-005,1.467756e-005
4.693235e-001,-1.695277e-005,1.466968e-005
4.701176e-001,-1.795987e-005,1.467665e-005
4.709118e-001,-2.098116e-005,1.469535e-005
4.717059e-001,-2.165255e-005,1.472675e-005
4.725000e-001,-1.829557e-005,1.475839e-005
4.732941e-001,-1.795987e-005,1.476590e-005
4.740882e-001,-1.829557e-005,1.477553e-005
4.748824e-001,-1.762417e-005,1.479167e-005
4.756765e-001,-1.493858e-005,1.480319e-005
4.764706e-001,-1.510643e-005,1.480098e-005
4.772647e-001,-1.393149e-005,1.480848e-005
4.780588e-001,-1.527428e-005,1.480948e-005
4.788529e-001,-1.242084e-005,1.481057e-005
4.796471e-001,-1.309224e-005,1.480262e-005
4.804412e-001,-1.560998e-005,1.479135e-005
4.812353e-001,-1.695277e-005,1.478904e-005
4.820294e-001,-1.762417e-005,1.478125e-005
4.828235e-001,-1.426719e-005,1.477865e-005
4.836176e-001,-1.493858e-005,1.477202e-005
4.844118e-001,-1.426719e-005,1.477516e-005
4.852059e-001,-1.426719e-005,1.476852e-005
4.860000e-001,-1.426719e-005,1.475948e-005
4.867941e-001,-1.393149e-005,1.475165e-005
4.875882e-001,-1.225299e-005,1.474629e-005
4.883824e-001,-1.091020e-005,1.473948e-005
4.891765e-001,-1.141375e-005,1.472250e-005
4.899706e-001,-1.292439e-005,1.471245e-005
4.907647e-001,-1.023880e-005,1.470744e-005
4.915588e-001,-1.225299e-005,1.470164e-005
4.923529e-001,-1.326009e-005,1.469372e-005
4.931471e-001,-1.292439e-005,1.469072e-005
4.939412e-001,-1.091020e-005,1.468241e-005
4.947353e-001,-9.567407e-006,1.466414e-005
4.955294e-001,-9.567407e-006,1.464469e-005
4.963235e-001,-8.896010e-006,1.463037e-005
4.971176e-001,-1.393149e-005,1.461682e-005
4.979118e-001,-1.795987e-005,1.461579e-005
4.987059e-001,-1.963836e-005,1.462606e-005
4.995000e-001,-1.644922e-005,1.465300e-005
5.002941e-001,-1.560998e-005,1.466865e-005
5.010882e-001,-1.225299e-005,1.468774e-005
5.018824e-001,-1.091020e-005,1.469783e-005
5.026765e-001,-1.158160e-005,1.469783e-005
5.034706e-001,-1.359579e-005,1.470442e-005
5.042647e-001,-1.426719e-005,1.471711e-005
5.050588e-001,-1.560998e-005,1.471711e-005
5.058529e-001,-1.292439e-005,1.471823e-005
5.066471e-001,-1.023880e-005,1.470521e-005
5.074412e-001,-1.124590e-005,1.469239e-005
5.082353e-001,-1.158160e-005,1.468190e-005
5.090294e-001,-1.091020e-005,1.466465e-005
5.098235e-001,-1.225299e-005,1.463567e-005
5.106176e-001,-1.292439e-005,1.462073e-005
5.114118e-001,-1.426719e-005,1.461829e-005
5.122059e-001,-1.426719e-005,1.461159e-005
5.130000e-001,-1.174945e-005,1.459991e-005
5.137941e-001,-1.225299e-005,1.458362e-005
5.145882e-001,-1.258869e-005,1.456608e-005
5.153824e-001,-1.376364e-005,1.455619e-005
5.161765e-001,-1.191730e-005,1.453755e-005
5.169706e-001,-9.735256e-006,1.450485e-005
5.177647e-001,-1.057450e-005,1.448614e-005
5.185588e-001,-1.275654e-005,1.447709e-005
5.193529e-001,-1.258869e-005,1.446523e-005
5.201471e-001,-1.258869e-005,1.446182e-005
5.209412e-001,-1.023880e-005,1.445891e-005
5.217353e-001,-9.567407e-006,1.444588e-005
5.225294e-001,-1.023880e-005,1.443850e-005
5.233235e-001,-1.124590e-005,1.443527e-005
5.241176e-001,-1.057450e-005,1.443912e-005
5.249118e-001,-1.292439e-005,1.442900e-005
5.257059e-001,-1.493858e-005,1.441695e-005
5.265000e-001,-1.695277e-005,1.442119e-005
5.272941e-001,-1.443504e-005,1.443250e-005
5.280882e-001,-1.460288e-005,1.443459e-005
5.288824e-001,-1.661708e-005,1.443566e-005
5.296765e-001,-1.712062e-005,1.443627e-005
5.304706e-001,-1.594568e-005,1.444173e-005
5.312647e-001,-1.560998e-005,1.443486e-005
5.320588e-001,-1.661708e-005,1.442747e-005
5.328529e-001,-1.896696e-005,1.443951e-005
5.336471e-001,-1.795987e-005,1.446437e-005
5.344412e-001,-1.762417e-005,1.448242e-005
5.352353e-001,-1.963836e-005,1.449913e-005
5.360294e-001,-1.963836e-005,1.452918e-005
5.368235e-001,-1.661708e-005,1.456621e-005
5.376176e-001,-1.393149e-005,1.459192e-005
5.384118e-001,-1.292439e-005,1.460933e-005
5.392059e-001,-1.174945e-005,1.462494e-005
5.400000e-001,-1.023880e-005,1.463702e-005
5.407941e-001,-1.292439e-005,1.463847e-005
5.415882e-001,-1.527428e-005,1.464031e-005
5.423824e-001,-1.863127e-005,1.464935e-005
5.431765e-001,-1.560998e-005,1.467331e-005
5.439706e-001,-1.359579e-005,1.467869e-005
5.447647e-001,-1.393149e-005,1.468246e-005
5.455588e-001,-1.896696e-005,1.468632e-005
5.463529e-001,-1.795987e-005,1.469165e-005
5.471471e-001,-1.829557e-005,1.468898e-005
5.479412e-001,-1.896696e-005,1.467754e-005
5.487353e-001,-1.762417e-005,1.467473e-005
5.495294e-001,-1.762417e-005,1.466367e-005
5.503235e-001,-1.359579e-005,1.464327e-005
5.511176e-001,-9.567407e-006,1.461393e-005
5.519118e-001,-7.888914e-006,1.457276e-005
5.527059e-001,-5.874723e-006,1.451998e-005
5.535000e-001,-9.567407e-006,1.446568e-005
5.542941e-001,-1.258869e-005,1.442725e-005
5.550882e-001,-1.023880e-005,1.441301e-005
5.558824e-001,-9.567407e-006,1.439993e-005
5.566765e-001,-1.124590e-005,1.439345e-005
5.574706e-001,-1.393149e-005,1.439507e-005
5.582647e-001,-1.560998e-005,1.439806e-005
5.590588e-001,-1.460288e-005,1.439569e-005
5.598529e-001,-1.493858e-005,1.439883e-005
5.606471e-001,-1.795987e-005,1.440047e-005
5.614412e-001,-1.896696e-005,1.441255e-005
5.622353e-001,-1.762417e-005,1.442763e-005
5.630294e-001,-1.712062e-005,1.443502e-005
5.638235e-001,-1.728847e-005,1.444892e-005
5.646176e-001,-1.779202e-005,1.446991e-005
5.654118e-001,-1.560998e-005,1.449394e-005
5.662059e-001,-1.493858e-005,1.450596e-005
5.670000e-001,-1.695277e-005,1.451969e-005
5.677941e-001,-1.762417e-005,1.454115e-005
5.685882e-001,-1.393149e-005,1.456648e-005
5.693824e-001,-1.292439e-005,1.457968e-005
5.701765e-001,-1.191730e-005,1.458492e-005
5.709706e-001,-1.695277e-005,1.458743e-005
5.717647e-001,-1.661708e-005,1.460580e-005
5.725588e-001,-1.493858e-005,1.462211e-005
5.733529e-001,-1.728847e-005,1.463778e-005
5.741471e-001,-1.527428e-005,1.465484e-005
5.749412e-001,-1.158160e-005,1.466561e-005
5.757353e-001,-1.023880e-005,1.466725e-005
5.765294e-001,-5.874723e-006,1.467003e-005
5.773235e-001,-4.867628e-006,1.466486e-005
5.781176e-001,-5.539025e-006,1.466068e-005
5.789118e-001,-8.224612e-006,1.466341e-005
5.797059e-001,-9.735256e-006,1.466046e-005
5.805000e-001,-1.376364e-005,1.464075e-005
5.812941e-001,-1.762417e-005,1.463132e-005
5.820882e-001,-1.896696e-005,1.463973e-005
5.828824e-001,-1.795987e-005,1.465566e-005
5.836765e-001,-1.863127e-005,1.465696e-005
5.844706e-001,-1.829557e-005,1.465558e-005
5.852647e-001,-1.829557e-005,1.465691e-005
5.860588e-001,-1.963836e-005,1.465823e-005
5.868529e-001,-1.863127e-005,1.466309e-005
5.876471e-001,-1.829557e-005,1.466958e-005
5.884412e-001,-1.594568e-005,1.467594e-005
5.892353e-001,-1.493858e-005,1.466982e-005
5.900294e-001,-1.560998e-005,1.466982e-005
5.908235e-001,-1.426719e-005,1.467205e-005
5.916176e-001,-1.258869e-005,1.466477e-005
5.924118e-001,-1.225299e-005,1.465199e-005
5.932059e-001,-1.292439e-005,1.463949e-005
5.940000e-001,-1.594568e-005,1.462762e-005
5.947941e-001,-1.426719e-005,1.463314e-005
5.955882e-001,-1.309224e-005,1.463712e-005
5.963824e-001,-1.493858e-005,1.464509e-005
5.971765e-001,-1.628138e-005,1.465024e-005
5.979706e-001,-1.460288e-005,1.466042e-005
5.987647e-001,-1.158160e-005,1.466984e-005
5.995588e-001,-1.460288e-005,1.466017e-005
6.003529e-001,-1.493858e-005,1.465211e-005
6.011471e-001,-1.628138e-005,1.463998e-005
6.019412e-001,-1.493858e-005,1.462394e-005
6.027353e-001,-1.493858e-005,1.461442e-005
6.035294e-001,-1.863127e-005,1.460864e-005
6.043235e-001,-1.930266e-005,1.461132e-005
6.051176e-001,-1.829557e-005,1.461272e-005
6.059118e-001,-1.896696e-005,1.461535e-005
6.067059e-001,-1.728847e-005,1.462323e-005
6.075000e-001,-1.661708e-005,1.463037e-005
6.082941e-001,-1.443504e-005,1.463721e-005
6.090882e-001,-1.359579e-005,1.463877e-005
6.098824e-001,-1.292439e-005,1.464164e-005
6.106765e-001,-1.258869e-005,1.463970e-005
6.114706e-001,-1.359579e-005,1.463683e-005
6.122647e-001,-1.258869e-005,1.463156e-005
6.130588e-001,-1.493858e-005,1.461690e-005
6.138529e-001,-1.560998e-005,1.461579e-005
6.146471e-001,-1.527428e-005,1.462598e-005
6.154412e-001,-1.493858e-005,1.463125e-005
6.162353e-001,-1.628138e-005,1.462902e-005
6.170294e-001,-1.762417e-005,1.462406e-005
6.178235e-001,-1.644922e-005,1.462406e-005
6.186176e-001,-1.443504e-005,1.460558e-005
6.194118e-001,-1.326009e-005,1.459443e-005
6.202059e-001,-1.158160e-005,1.459345e-005
6.210000e-001,-9.567407e-006,1.458986e-005
6.217941e-001,-8.224612e-006,1.458840e-005
6.225882e-001,-1.023880e-005,1.458840e-005
6.233824e-001,-6.881819e-006,1.459121e-005
6.241765e-001,-6.881819e-006,1.458869e-005
6.249706e-001,-6.210422e-006,1.458315e-005
6.257647e-001,-7.553216e-006,1.456912e-005
6.265588e-001,-6.210422e-006,1.455413e-005
6.273529e-001,-6.210422e-006,1.452933e-005
6.281471e-001,-7.553216e-006,1.450203e-005
6.289412e-001,-1.023880e-005,1.448153e-005
6.297353e-001,-1.057450e-005,1.446625e-005
6.305294e-001,-1.091020e-005,1.444691e-005
6.313235e-001,-1.057450e-005,1.442578e-005
6.321176e-001,-1.359579e-005,1.441349e-005
6.329118e-001,-1.661708e-005,1.440925e-005
6.337059e-001,-1.712062e-005,1.441727e-005
6.345000e-001,-1.695277e-005,1.443306e-005
6.352941e-001,-1.762417e-005,1.444335e-005
6.360882e-001,-2.198825e-005,1.446748e-005
6.368824e-001,-2.064546e-005,1.451287e-005
6.376765e-001,-1.762417e-005,1.454489e-005
6.384706e-001,-1.628138e-005,1.456740e-005
6.392647e-001,-1.695277e-005,1.457996e-005
6.400588e-001,-1.577783e-005,1.459449e-005
6.408529e-001,-1.829557e-005,1.460246e-005
6.416471e-001,-1.762417e-005,1.462516e-005
6.424412e-001,-1.896696e-005,1.464478e-005
6.432353e-001,-1.728847e-005,1.465739e-005
6.440294e-001,-1.594568e-005,1.466106e-005
6.448235e-001,-1.426719e-005,1.466106e-005
6.456176e-001,-1.359579e-005,1.466260e-005
6.464118e-001,-1.493858e-005,1.465621e-005
6.472059e-001,-1.829557e-005,1.465398e-005
6.480000e-001,-2.098116e-005,1.466823e-005
6.487941e-001,-1.712062e-005,1.469492e-005
6.495882e-001,-1.628138e-005,1.470665e-005
6.503824e-001,-1.560998e-005,1.471279e-005
6.511765e-001,-1.493858e-005,1.471047e-005
6.519706e-001,-1.225299e-005,1.469568e-005
6.527647e-001,-9.567407e-006,1.468018e-005
6.535588e-001,-1.124590e-005,1.464532e-005
6.543529e-001,-9.567407e-006,1.462656e-005
6.551471e-001,-1.023880e-005,1.460269e-005
6.559412e-001,-1.057450e-005,1.456911e-005
6.567353e-001,-1.426719e-005,1.455469e-005
6.575294e-001,-1.930266e-005,1.455416e-005
6.583235e-001,-1.762417e-005,1.456094e-005
6.591176e-001,-1.376364e-005,1.454980e-005
6.599118e-001,-1.174945e-005,1.453389e-005
6.607059e-001,-1.359579e-005,1.452775e-005
6.615000e-001,-1.628138e-005,1.451895e-005
6.622941e-001,-1.628138e-005,1.452355e-005
6.630882e-001,-1.460288e-005,1.453234e-005
6.638824e-001,-1.225299e-005,1.454014e-005
6.646765e-001,-1.292439e-005,1.454584e-005
6.654706e-001,-1.426719e-005,1.455110e-005
6.662647e-001,-1.527428e-005,1.456190e-005
6.670588e-001,-1.393149e-005,1.458116e-005
6.678529e-001,-1.174945e-005,1.458854e-005
6.686471e-001,-1.376364e-005,1.458811e-005
6.694412e-001,-1.326009e-005,1.460014e-005
6.702353e-001,-1.443504e-005,1.460633e-005
6.710294e-001,-1.493858e-005,1.461975e-005
6.718235e-001,-1.225299e-005,1.463889e-005
6.726176e-001,-1.225299e-005,1.464845e-005
6.734118e-001,-1.225299e-005,1.465019e-005
6.742059e-001,-1.628138e-005,1.463944e-005
6.750000e-001,-1.527428e-005,1.464915e-005
6.757941e-001,-1.493858e-005,1.465819e-005
6.765882e-001,-1.292439e-005,1.467177e-005
6.773824e-001,-1.225299e-005,1.467448e-005
6.781765e-001,-1.359579e-005,1.467746e-005
6.789706e-001,-1.628138e-005,1.467746e-005
6.797647e-001,-1.695277e-005,1.468809e-005
6.805588e-001,-1.527428e-005,1.470113e-005
6.813529e-001,-1.560998e-005,1.469944e-005
6.821471e-001,-1.661708e-005,1.468957e-005
6.829412e-001,-1.594568e-005,1.469477e-005
6.837353e-001,-1.225299e-005,1.469704e-005
6.845294e-001,-1.258869e-005,1.468338e-005
6.853235e-001,-9.903105e-006,1.467062e-005
6.861176e-001,-8.896010e-006,1.464943e-005
6.869118e-001,-7.553216e-006,1.463266e-005
6.877059e-001,-1.023880e-005,1.461457e-005
6.885000e-001,-1.023880e-005,1.460168e-005
6.892941e-001,-8.560311e-006,1.459489e-005
6.900882e-001,-8.224612e-006,1.458825e-005
6.908824e-001,-1.057450e-005,1.457969e-005
6.916765e-001,-1.225299e-005,1.456752e-005
6.924706e-001,-1.258869e-005,1.455954e-005
6.932647e-001,-1.628138e-005,1.455665e-005
6.940588e-001,-1.829557e-005,1.456338e-005
6.948529e-001,-1.661708e-005,1.458310e-005
6.956471e-001,-1.762417e-005,1.459501e-005
6.964412e-001,-1.426719e-005,1.459877e-005
6.972353e-001,-1.258869e-005,1.458709e-005
6.980294e-001,-1.560998e-005,1.457778e-005
6.988235e-001,-1.644922e-005,1.457947e-005
6.996176e-001,-1.560998e-005,1.459262e-005
7.004118e-001,-1.628138e-005,1.460700e-005
7.012059e-001,-1.426719e-005,1.462726e-005
7.020000e-001,-1.493858e-005,1.464205e-005
7.027941e-001,-1.460288e-005,1.465337e-005
7.035882e-001,-1.393149e-005,1.465932e-005
7.043824e-001,-1.577783e-005,1.465829e-005
7.051765e-001,-1.997406e-005,1.466525e-005
7.059706e-001,-1.829557e-005,1.468433e-005
7.067647e-001,-1.712062e-005,1.469749e-005
7.075588e-001,-1.560998e-005,1.470822e-005
7.083529e-001,-1.359579e-005,1.471965e-005
7.091471e-001,-1.091020e-005,1.472340e-005
7.099412e-001,-1.091020e-005,1.470006e-005
7.107353e-001,-1.225299e-005,1.468540e-005
7.115294e-001,-1.527428e-005,1.466537e-005
7.123235e-001,-2.098116e-005,1.464590e-005
7.131176e-001,-1.896696e-005,1.465737e-005
7.139118e-001,-1.712062e-005,1.466765e-005
7.147059e-001,-1.695277e-005,1.467187e-005
7.155000e-001,-1.628138e-005,1.466262e-005
7.162941e-001,-1.359579e-005,1.464359e-005
7.170882e-001,-1.158160e-005,1.463426e-005
7.178824e-001,-1.393149e-005,1.462670e-005
7.186765e-001,-1.762417e-005,1.462567e-005
7.194706e-001,-1.913481e-005,1.462820e-005
7.202647e-001,-1.695277e-005,1.463294e-005
7.210588e-001,-1.426719e-005,1.461631e-005
7.218529e-001,-1.493858e-005,1.458738e-005
7.226471e-001,-1.695277e-005,1.457519e-005
7.234412e-001,-1.174945e-005,1.457135e-005
7.242353e-001,-8.560311e-006,1.454984e-005
7.250294e-001,-9.735256e-006,1.452385e-005
7.258235e-001,-1.107805e-005,1.450976e-005
7.266176e-001,-1.359579e-005,1.449818e-005
7.274118e-001,-1.695277e-005,1.449717e-005
7.282059e-001,-1.829557e-005,1.450311e-005
7.290000e-001,-1.695277e-005,1.452291e-005
7.297941e-001,-1.594568e-005,1.453562e-005
7.305882e-001,-1.359579e-005,1.453678e-005
7.313824e-001,-1.426719e-005,1.452554e-005
7.321765e-001,-1.292439e-005,1.451380e-005
7.329706e-001,-1.225299e-005,1.450979e-005
7.337647e-001,-1.174945e-005,1.450178e-005
7.345588e-001,-1.225299e-005,1.449458e-005
7.353529e-001,-1.225299e-005,1.448871e-005
7.361471e-001,-1.091020e-005,1.448284e-005
7.369412e-001,-9.567407e-006,1.447459e-005
7.377353e-001,-1.258869e-005,1.446814e-005
7.385294e-001,-1.829557e-005,1.447248e-005
7.393235e-001,-1.913481e-005,1.449496e-005
7.401176e-001,-1.795987e-005,1.451681e-005
7.409118e-001,-1.628138e-005,1.454067e-005
7.417059e-001,-1.292439e-005,1.455326e-005
7.425000e-001,-1.225299e-005,1.455230e-005
7.432941e-001,-1.460288e-005,1.455045e-005
7.440882e-001,-1.225299e-005,1.456075e-005
7.448824e-001,-1.426719e-005,1.456716e-005
7.456765e-001,-1.460288e-005,1.457940e-005
7.464706e-001,-1.628138e-005,1.459404e-005
7.472647e-001,-2.030976e-005,1.460178e-005
7.480588e-001,-1.628138e-005,1.461159e-005
7.488529e-001,-1.426719e-005,1.459844e-005
7.496471e-001,-1.829557e-005,1.459113e-005
7.504412e-001,-1.560998e-005,1.460106e-005
7.512353e-001,-1.258869e-005,1.461126e-005
7.520294e-001,-1.292439e-005,1.461556e-005
7.528235e-001,-1.242084e-005,1.461914e-005
7.536176e-001,-1.091020e-005,1.461581e-005
7.544118e-001,-1.426719e-005,1.460660e-005
7.552059e-001,-1.493858e-005,1.460222e-005
7.560000e-001,-1.292439e-005,1.460834e-005
7.567941e-001,-1.292439e-005,1.461512e-005
7.575882e-001,-1.326009e-005,1.461954e-005
7.583824e-001,-1.174945e-005,1.462408e-005
7.591765e-001,-8.896010e-006,1.462615e-005
7.599706e-001,-1.023880e-005,1.461842e-005
7.607647e-001,-1.191730e-005,1.461164e-005
7.615588e-001,-1.426719e-005,1.460494e-005
7.623529e-001,-1.728847e-005,1.460494e-005
7.631471e-001,-2.030976e-005,1.462246e-005
7.639412e-001,-2.030976e-005,1.465100e-005
7.647353e-001,-1.947051e-005,1.467859e-005
7.655294e-001,-1.829557e-005,1.469915e-005
7.663235e-001,-1.896696e-005,1.472001e-005
7.671176e-001,-1.728847e-005,1.474864e-005
7.679118e-001,-1.292439e-005,1.476883e-005
7.687059e-001,-1.057450e-005,1.476929e-005
7.695000e-001,-1.124590e-005,1.476426e-005
7.702941e-001,-1.326009e-005,1.476081e-005
7.710882e-001,-1.292439e-005,1.476847e-005
7.718824e-001,-1.225299e-005,1.477660e-005
7.726765e-001,-8.896010e-006,1.478149e-005
7.734706e-001,-9.903105e-006,1.477639e-005
7.742647e-001,-1.124590e-005,1.477490e-005
7.750588e-001,-1.426719e-005,1.477053e-005
7.758529e-001,-1.560998e-005,1.476842e-005
7.766471e-001,-1.628138e-005,1.476370e-005
7.774412e-001,-1.292439e-005,1.476982e-005
7.782353e-001,-1.628138e-005,1.476484e-005
7.790294e-001,-1.426719e-005,1.476364e-005
7.798235e-001,-1.359579e-005,1.475398e-005
7.806176e-001,-1.292439e-005,1.474649e-005
7.814118e-001,-1.426719e-005,1.473821e-005
7.822059e-001,-1.292439e-005,1.473037e-005
7.830000e-001,-1.527428e-005,1.470952e-005
7.837941e-001,-1.493858e-005,1.469985e-005
7.845882e-001,-1.393149e-005,1.469038e-005
7.853824e-001,-1.628138e-005,1.466960e-005
7.861765e-001,-1.527428e-005,1.465650e-005
7.869706e-001,-1.359579e-005,1.465185e-005
7.877647e-001,-1.326009e-005,1.465085e-005
7.885588e-001,-1.493858e-005,1.465180e-005
7.893529e-001,-1.695277e-005,1.466105e-005
7.901471e-001,-1.023880e-005,1.468086e-005
7.909412e-001,-7.553216e-006,1.467411e-005
7.917353e-001,-1.158160e-005,1.465498e-005
7.925294e-001,-1.426719e-005,1.463181e-005
7.933235e-001,-1.795987e-005,1.462745e-005
7.941176e-001,-1.728847e-005,1.464243e-005
7.949118e-001,-1.426719e-005,1.465382e-005
7.957059e-001,-1.527428e-005,1.463684e-005
7.965000e-001,-1.695277e-005,1.462713e-005
7.972941e-001,-1.728847e-005,1.462198e-005
7.980882e-001,-1.762417e-005,1.461535e-005
7.988824e-001,-1.829557e-005,1.461535e-005
7.996765e-001,-1.795987e-005,1.461798e-005
8.004706e-001,-1.560998e-005,1.463297e-005
8.012647e-001,-1.460288e-005,1.464951e-005
8.020588e-001,-1.594568e-005,1.466592e-005
8.028529e-001,-1.728847e-005,1.468976e-005
8.036471e-001,-1.829557e-005,1.471222e-005
8.044412e-001,-1.426719e-005,1.473128e-005
8.052353e-001,-1.158160e-005,1.474195e-005
8.060294e-001,-1.242084e-005,1.474655e-005
8.068235e-001,-1.359579e-005,1.474955e-005
8.076176e-001,-1.023880e-005,1.474856e-005
8.084118e-001,-1.426719e-005,1.473356e-005
8.092059e-001,-1.762417e-005,1.473251e-005
8.100000e-001,-1.762417e-005,1.474196e-005
8.107941e-001,-1.628138e-005,1.474067e-005
8.115882e-001,-1.359579e-005,1.473044e-005
8.123824e-001,-1.292439e-005,1.471684e-005
8.131765e-001,-1.158160e-005,1.470319e-005
8.139706e-001,-1.342794e-005,1.468534e-005
8.147647e-001,-1.023880e-005,1.467056e-005
8.155588e-001,-1.141375e-005,1.465548e-005
8.163529e-001,-1.225299e-005,1.464538e-005
8.171471e-001,-1.091020e-005,1.463045e-005
8.179412e-001,-1.158160e-005,1.460958e-005
8.187353e-001,-9.903105e-006,1.460305e-005
8.195294e-001,-1.124590e-005,1.459553e-005
8.203235e-001,-1.292439e-005,1.459383e-005
8.211176e-001,-1.091020e-005,1.458069e-005
8.219118e-001,-1.158160e-005,1.456352e-005
8.227059e-001,-1.426719e-005,1.455379e-005
8.235000e-001,-1.510643e-005,1.454335e-005
8.242941e-001,-1.292439e-005,1.454279e-005
8.250882e-001,-1.225299e-005,1.454640e-005
8.258824e-001,-1.091020e-005,1.455135e-005
8.266765e-001,-1.527428e-005,1.456060e-005
8.274706e-001,-1.762417e-005,1.458350e-005
8.282647e-001,-1.695277e-005,1.461404e-005
8.290588e-001,-1.779202e-005,1.463796e-005
8.298529e-001,-1.896696e-005,1.466207e-005
8.306471e-001,-1.560998e-005,1.468055e-005
8.314412e-001,-1.057450e-005,1.467329e-005
8.322353e-001,-5.539025e-006,1.464636e-005
8.330294e-001,-3.524834e-006,1.461459e-005
8.338235e-001,-7.888914e-006,1.457808e-005
8.346176e-001,-1.326009e-005,1.454829e-005
8.354118e-001,-1.225299e-005,1.453088e-005
8.362059e-001,-1.292439e-005,1.450505e-005
8.370000e-001,-1.594568e-005,1.448527e-005
8.377941e-001,-1.359579e-005,1.447642e-005
8.385882e-001,-1.728847e-005,1.446878e-005
8.393824e-001,-1.527428e-005,1.447711e-005
8.401765e-001,-1.460288e-005,1.447597e-005
8.409706e-001,-1.426719e-005,1.447704e-005
8.417647e-001,-1.527428e-005,1.448200e-005
8.425588e-001,-1.359579e-005,1.449114e-005
8.433529e-001,-1.393149e-005,1.449309e-005
8.441471e-001,-1.292439e-005,1.448648e-005
8.449412e-001,-1.393149e-005,1.448247e-005
8.457353e-001,-1.628138e-005,1.448496e-005
8.465294e-001,-1.560998e-005,1.448957e-005
8.473235e-001,-1.896696e-005,1.448721e-005
8.481176e-001,-1.695277e-005,1.450331e-005
8.489118e-001,-1.829557e-005,1.452013e-005
8.497059e-001,-1.795987e-005,1.453344e-005
8.505000e-001,-1.577783e-005,1.454433e-005
8.512941e-001,-1.594568e-005,1.454256e-005
8.520882e-001,-1.292439e-005,1.454597e-005
8.528824e-001,-9.903105e-006,1.453982e-005
8.536765e-001,-1.225299e-005,1.451252e-005
8.544706e-001,-1.426719e-005,1.448809e-005
8.552647e-001,-1.225299e-005,1.447367e-005
8.560588e-001,-1.493858e-005,1.445059e-005
8.568529e-001,-1.493858e-005,1.444224e-005
8.576471e-001,-1.292439e-005,1.443640e-005
8.584412e-001,-1.393149e-005,1.443184e-005
8.592353e-001,-1.359579e-005,1.443286e-005
8.600294e-001,-1.493858e-005,1.443483e-005
8.608235e-001,-1.393149e-005,1.444196e-005
8.616176e-001,-1.225299e-005,1.444298e-005
8.624118e-001,-1.225299e-005,1.444206e-005
8.632059e-001,-1.124590e-005,1.443400e-005
8.640000e-001,-1.158160e-005,1.442107e-005
8.647941e-001,-1.023880e-005,1.441011e-005
8.655882e-001,-1.359579e-005,1.439703e-005
8.663824e-001,-1.661708e-005,1.438816e-005
8.671765e-001,-1.258869e-005,1.438434e-005
8.679706e-001,-1.225299e-005,1.437192e-005
8.687647e-001,-1.493858e-005,1.436547e-005
8.695588e-001,-1.661708e-005,1.437072e-005
8.703529e-001,-1.712062e-005,1.438644e-005
8.711471e-001,-1.628138e-005,1.440874e-005
8.719412e-001,-1.594568e-005,1.443054e-005
8.727353e-001,-1.661708e-005,1.444702e-005
8.735294e-001,-1.695277e-005,1.447221e-005
8.743235e-001,-1.359579e-005,1.449860e-005
8.751176e-001,-1.107805e-005,1.451466e-005
8.759118e-001,-1.393149e-005,1.452186e-005
8.767059e-001,-1.695277e-005,1.453890e-005
8.775000e-001,-1.258869e-005,1.456613e-005
8.782941e-001,-1.057450e-005,1.457721e-005
8.790882e-001,-1.309224e-005,1.457797e-005
8.798824e-001,-1.292439e-005,1.458448e-005
8.806765e-001,-1.359579e-005,1.458972e-005
8.814706e-001,-1.393149e-005,1.459769e-005
8.822647e-001,-1.023880e-005,1.459870e-005
8.830588e-001,-1.091020e-005,1.458000e-005
8.838529e-001,-1.258869e-005,1.456098e-005
8.846471e-001,-1.091020e-005,1.454687e-005
8.854412e-001,-8.896010e-006,1.452589e-005
8.862353e-001,-1.040665e-005,1.448149e-005
8.870294e-001,-1.393149e-005,1.444649e-005
8.878235e-001,-1.393149e-005,1.443364e-005
8.886176e-001,-1.359579e-005,1.442581e-005
8.894118e-001,-1.695277e-005,1.441448e-005
8.902059e-001,-1.628138e-005,1.441873e-005
8.910000e-001,-1.762417e-005,1.441104e-005
8.917941e-001,-1.628138e-005,1.441104e-005
8.925882e-001,-1.695277e-005,1.440057e-005
8.933824e-001,-1.896696e-005,1.439930e-005
8.941765e-001,-1.779202e-005,1.441096e-005
8.949706e-001,-1.695277e-005,1.442344e-005
8.957647e-001,-1.963836e-005,1.443476e-005
8.965588e-001,-1.963836e-005,1.445267e-005
8.973529e-001,-1.527428e-005,1.445829e-005
8.981471e-001,-1.426719e-005,1.443548e-005
8.989412e-001,-1.560998e-005,1.442560e-005
8.997353e-001,-1.628138e-005,1.442323e-005
9.005294e-001,-1.661708e-005,1.442560e-005
9.013235e-001,-1.829557e-005,1.443144e-005
9.021176e-001,-1.728847e-005,1.445180e-005
9.029118e-001,-1.695277e-005,1.447462e-005
9.037059e-001,-1.695277e-005,1.449232e-005
9.045000e-001,-1.628138e-005,1.451382e-005
9.052941e-001,-1.762417e-005,1.453139e-005
9.060882e-001,-1.560998e-005,1.455316e-005
9.068824e-001,-1.493858e-005,1.455755e-005
9.076765e-001,-1.594568e-005,1.454119e-005
9.084706e-001,-1.762417e-005,1.453502e-005
9.092647e-001,-1.829557e-005,1.454829e-005
9.100588e-001,-1.762417e-005,1.456980e-005
9.108529e-001,-1.947051e-005,1.458354e-005
9.116471e-001,-1.409934e-005,1.459599e-005
9.124412e-001,-1.023880e-005,1.458875e-005
9.132353e-001,-9.567407e-006,1.457691e-005
9.140294e-001,-8.224612e-006,1.457051e-005
9.148235e-001,-8.896010e-006,1.455964e-005
9.156176e-001,-5.539025e-006,1.454603e-005
9.164118e-001,-6.881819e-006,1.452383e-005
9.172059e-001,-1.023880e-005,1.450774e-005
9.180000e-001,-1.309224e-005,1.450409e-005
9.187941e-001,-1.493858e-005,1.450211e-005
9.195882e-001,-1.359579e-005,1.450731e-005
9.203824e-001,-1.292439e-005,1.450472e-005
9.211765e-001,-1.292439e-005,1.449856e-005
9.219706e-001,-1.527428e-005,1.450042e-005
9.227647e-001,-1.762417e-005,1.450955e-005
9.235588e-001,-1.510643e-005,1.452715e-005
9.243529e-001,-1.393149e-005,1.452311e-005
9.251471e-001,-9.567407e-006,1.451881e-005
9.259412e-001,-8.896010e-006,1.450436e-005
9.267353e-001,-9.231709e-006,1.449471e-005
9.275294e-001,-1.292439e-005,1.448758e-005
9.283235e-001,-1.359579e-005,1.448562e-005
9.291176e-001,-1.225299e-005,1.447680e-005
9.299118e-001,-1.426719e-005,1.446169e-005
9.307059e-001,-1.863127e-005,1.445841e-005
9.315000e-001,-1.829557e-005,1.446980e-005
9.322941e-001,-1.829557e-005,1.447625e-005
9.330882e-001,-1.728847e-005,1.448510e-005
9.338824e-001,-1.779202e-005,1.450144e-005
9.346765e-001,-2.047761e-005,1.451879e-005
9.354706e-001,-2.299535e-005,1.455398e-005
9.362647e-001,-2.568093e-005,1.460309e-005
9.370588e-001,-2.333104e-005,1.466864e-005
9.378529e-001,-2.064546e-005,1.471627e-005
9.386471e-001,-1.762417e-005,1.475101e-005
9.394412e-001,-1.560998e-005,1.477661e-005
9.402353e-001,-1.493858e-005,1.479557e-005
9.410294e-001,-1.426719e-005,1.480754e-005
9.418235e-001,-1.376364e-005,1.481329e-005
9.426176e-001,-1.359579e-005,1.481661e-005
9.434118e-001,-1.426719e-005,1.480799e-005
9.442059e-001,-1.292439e-005,1.479388e-005
9.450000e-001,-1.158160e-005,1.478213e-005
9.457941e-001,-9.567407e-006,1.476311e-005
9.465882e-001,-1.426719e-005,1.475102e-005
9.473824e-001,-1.628138e-005,1.475589e-005
9.481765e-001,-1.023880e-005,1.475820e-005
9.489706e-001,-9.567407e-006,1.474030e-005
9.497647e-001,-9.567407e-006,1.472386e-005
9.505588e-001,-9.567407e-006,1.470508e-005
9.513529e-001,-1.158160e-005,1.469294e-005
9.521471e-001,-1.443504e-005,1.468329e-005
9.529412e-001,-1.577783e-005,1.468276e-005
9.537353e-001,-1.695277e-005,1.468871e-005
9.545294e-001,-1.628138e-005,1.469288e-005
9.553235e-001,-1.393149e-005,1.467836e-005
9.561176e-001,-1.359579e-005,1.466310e-005
9.569118e-001,-1.091020e-005,1.465133e-005
9.577059e-001,-1.023880e-005,1.463778e-005
9.585000e-001,-1.242084e-005,1.462908e-005
9.592941e-001,-9.903105e-006,1.463291e-005
9.600882e-001,-9.903105e-006,1.463063e-005
9.608824e-001,-9.567407e-006,1.462496e-005
9.616765e-001,-8.896010e-006,1.460952e-005
9.624706e-001,-1.242084e-005,1.457011e-005
9.632647e-001,-1.426719e-005,1.454764e-005
9.640588e-001,-1.493858e-005,1.453783e-005
9.648529e-001,-1.493858e-005,1.453080e-005
9.656471e-001,-1.292439e-005,1.452620e-005
9.664412e-001,-1.493858e-005,1.452425e-005
9.672353e-001,-1.560998e-005,1.453401e-005
9.680294e-001,-1.527428e-005,1.453944e-005
9.688235e-001,-1.359579e-005,1.453097e-005
9.696176e-001,-1.560998e-005,1.451109e-005
9.704118e-001,-1.628138e-005,1.450629e-005
9.712059e-001,-1.359579e-005,1.451304e-005
9.720000e-001,-1.359579e-005,1.450884e-005
9.727941e-001,-1.393149e-005,1.449758e-005
9.735882e-001,-1.292439e-005,1.450373e-005
9.743824e-001,-1.258869e-005,1.451402e-005
9.751765e-001,-1.326009e-005,1.452101e-005
9.759706e-001,-1.359579e-005,1.452683e-005
9.767647e-001,-1.493858e-005,1.452683e-005
9.775588e-001,-1.174945e-005,1.451979e-005
9.783529e-001,-1.124590e-005,1.449820e-005
9.791471e-001,-1.225299e-005,1.448052e-005
9.799412e-001,-1.258869e-005,1.446906e-005
9.807353e-001,-1.527428e-005,1.446616e-005
9.815294e-001,-1.695277e-005,1.446944e-005
9.823235e-001,-1.661708e-005,1.448268e-005
9.831176e-001,-1.393149e-005,1.449652e-005
9.839118e-001,-1.493858e-005,1.450268e-005
9.847059e-001,-1.846342e-005,1.451069e-005
9.855000e-001,-1.795987e-005,1.453161e-005
9.862941e-001,-1.829557e-005,1.455389e-005
9.870882e-001,-1.493858e-005,1.458048e-005
9.878824e-001,-1.560998e-005,1.458754e-005
9.886765e-001,-1.628138e-005,1.457760e-005
9.894706e-001,-1.628138e-005,1.456655e-005
9.902647e-001,-1.863127e-005,1.456027e-005
9.910588e-001,-1.695277e-005,1.456924e-005
9.918529e-001,-1.728847e-005,1.458239e-005
9.926471e-001,-1.628138e-005,1.459862e-005
9.934412e-001,-1.359579e-005,1.460428e-005
9.942353e-001,-1.258869e-005,1.460806e-005
9.950294e-001,-1.158160e-005,1.460315e-005
9.958235e-001,-1.225299e-005,1.459452e-005
9.966176e-001,-8.896010e-006,1.458197e-005
9.974118e-001,-8.896010e-006,1.454552e-005
9.982059e-001,-1.023880e-005,1.452515e-005
9.990000e-001,-1.292439e-005,1.451433e-005
9.997941e-001,-1.225299e-005,1.449592e-005
1.000588e+000,-1.225299e-005,1.448564e-005
1.001382e+000,-8.224612e-006,1.448472e-005
1.002176e+000,-8.224612e-006,1.447379e-005
1.002971e+000,-1.393149e-005,1.446426e-005
1.003765e+000,-1.292439e-005,1.447252e-005
1.004559e+000,-1.258869e-005,1.446850e-005
1.005353e+000,-1.292439e-005,1.446138e-005
1.006147e+000,-1.644922e-005,1.446138e-005
1.006941e+000,-1.762417e-005,1.447277e-005
1.007735e+000,-1.493858e-005,1.448760e-005
1.008529e+000,-1.493858e-005,1.449695e-005
1.009324e+000,-1.997406e-005,1.451276e-005
1.010118e+000,-1.896696e-005,1.454499e-005
1.010912e+000,-1.963836e-005,1.456881e-005
1.011706e+000,-1.829557e-005,1.458870e-005
1.012500e+000,-1.930266e-005,1.459261e-005
1.013294e+000,-2.030976e-005,1.458826e-005
1.014088e+000,-2.047761e-005,1.458826e-005
1.014882e+000,-1.863127e-005,1.459265e-005
1.015676e+000,-1.762417e-005,1.459400e-005
1.016471e+000,-1.628138e-005,1.458864e-005
1.017265e+000,-1.762417e-005,1.458495e-005
1.018059e+000,-1.628138e-005,1.460062e-005
1.018853e+000,-1.359579e-005,1.461732e-005
1.019647e+000,-1.426719e-005,1.462368e-005
1.020441e+000,-1.292439e-005,1.462670e-005
1.021235e+000,-1.023880e-005,1.462670e-005
1.022029e+000,-1.091020e-005,1.462177e-005
1.022824e+000,-1.158160e-005,1.462611e-005
1.023618e+000,-1.158160e-005,1.463004e-005
1.024412e+000,-1.225299e-005,1.463087e-005
1.025206e+000,-1.577783e-005,1.462505e-005
1.026000e+000,-1.258869e-005,1.462563e-005
1.026794e+000,-1.225299e-005,1.461402e-005
1.027588e+000,-1.426719e-005,1.461217e-005
1.028382e+000,-1.091020e-005,1.460547e-005
1.029176e+000,-1.023880e-005,1.459625e-005
1.029971e+000,-9.231709e-006,1.458752e-005
1.030765e+000,-8.896010e-006,1.457858e-005
1.031559e+000,-8.896010e-006,1.456499e-005
1.032353e+000,-1.393149e-005,1.455537e-005
1.033147e+000,-1.359579e-005,1.455108e-005
1.033941e+000,-1.225299e-005,1.454689e-005
1.034735e+000,-1.426719e-005,1.454208e-005
1.035529e+000,-1.829557e-005,1.453534e-005
1.036324e+000,-1.779202e-005,1.454645e-005
1.037118e+000,-1.628138e-005,1.456086e-005
1.037912e+000,-1.661708e-005,1.457062e-005
1.038706e+000,-1.628138e-005,1.457640e-005
1.039500e+000,-1.292439e-005,1.457396e-005
1.040294e+000,-1.393149e-005,1.458076e-005
1.041088e+000,-1.242084e-005,1.459572e-005
1.041882e+000,-1.023880e-005,1.459791e-005
1.042676e+000,-1.258869e-005,1.458714e-005
1.043471e+000,-1.158160e-005,1.456922e-005
1.044265e+000,-1.258869e-005,1.455120e-005
1.045059e+000,-1.376364e-005,1.454627e-005
1.045853e+000,-1.493858e-005,1.454147e-005
1.046647e+000,-1.560998e-005,1.453443e-005
1.047441e+000,-1.258869e-005,1.452838e-005
1.048235e+000,-1.040665e-005,1.451169e-005
1.049029e+000,-1.023880e-005,1.448683e-005
1.049824e+000,-1.292439e-005,1.446288e-005
1.050618e+000,-1.158160e-005,1.445444e-005
1.051412e+000,-1.225299e-005,1.444572e-005
1.052206e+000,-1.023880e-005,1.443424e-005
1.053000e+000,-6.881819e-006,1.441281e-005
1.053794e+000,-1.091020e-005,1.438103e-005
1.054588e+000,-1.628138e-005,1.437167e-005
1.055382e+000,-1.728847e-005,1.438617e-005
1.056176e+000,-1.963836e-005,1.440217e-005
1.056971e+000,-1.846342e-005,1.442435e-005
1.057765e+000,-1.896696e-005,1.445039e-005
1.058559e+000,-1.661708e-005,1.446759e-005
1.059353e+000,-1.225299e-005,1.446380e-005
1.060147e+000,-1.158160e-005,1.444612e-005
1.060941e+000,-1.359579e-005,1.443168e-005
1.061735e+000,-1.493858e-005,1.443168e-005
1.062529e+000,-1.426719e-005,1.443787e-005
1.063324e+000,-1.326009e-005,1.444552e-005
1.064118e+000,-1.393149e-005,1.444503e-005
1.064912e+000,-1.695277e-005,1.445486e-005
1.065706e+000,-2.333104e-005,1.447216e-005
1.066500e+000,-2.098116e-005,1.451547e-005
1.067294e+000,-1.493858e-005,1.455066e-005
1.068088e+000,-1.493858e-005,1.456040e-005
1.068882e+000,-1.560998e-005,1.457407e-005
1.069676e+000,-1.695277e-005,1.458687e-005
1.070471e+000,-1.896696e-005,1.460001e-005
1.071265e+000,-2.064546e-005,1.462624e-005
1.072059e+000,-1.896696e-005,1.465800e-005
1.072853e+000,-1.695277e-005,1.467496e-005
1.073647e+000,-1.896696e-005,1.468138e-005
1.074441e+000,-1.829557e-005,1.470227e-005
1.075235e+000,-1.896696e-005,1.472225e-005
1.076029e+000,-1.963836e-005,1.474826e-005
1.076824e+000,-2.165255e-005,1.476470e-005
1.077618e+000,-1.829557e-005,1.478176e-005
1.078412e+000,-1.443504e-005,1.478685e-005
1.079206e+000,-1.594568e-005,1.477520e-005
1.080000e+000,-1.762417e-005,1.476383e-005
1.080794e+000,-1.493858e-005,1.477104e-005
1.081588e+000,-9.903105e-006,1.478304e-005
1.082382e+000,-9.567407e-006,1.479030e-005
1.083176e+000,-9.567407e-006,1.479881e-005
1.083971e+000,-9.735256e-006,1.480197e-005
1.084765e+000,-8.560311e-006,1.479325e-005
1.085559e+000,-9.567407e-006,1.478497e-005
1.086353e+000,-9.567407e-006,1.477684e-005
1.087147e+000,-1.057450e-005,1.475929e-005
1.087941e+000,-1.023880e-005,1.475141e-005
1.088735e+000,-8.896010e-006,1.473045e-005
1.089529e+000,-8.896010e-006,1.471377e-005
1.090324e+000,-3.860533e-006,1.469925e-005
1.091118e+000,-4.867628e-006,1.467880e-005
1.091912e+000,-5.539025e-006,1.465605e-005
1.092706e+000,-1.091020e-005,1.463929e-005
1.093500e+000,-1.158160e-005,1.463112e-005
1.094294e+000,-1.292439e-005,1.462754e-005
1.095088e+000,-1.091020e-005,1.462459e-005
1.095882e+000,-1.493858e-005,1.460868e-005
1.096676e+000,-1.762417e-005,1.460645e-005
1.097471e+000,-1.762417e-005,1.460109e-005
1.098265e+000,-1.896696e-005,1.460362e-005
1.099059e+000,-2.299535e-005,1.460635e-005
1.099853e+000,-2.568093e-005,1.462881e-005
1.100647e+000,-2.500954e-005,1.467344e-005
1.101441e+000,-2.098116e-005,1.471366e-005
1.102235e+000,-1.728847e-005,1.474320e-005
1.103029e+000,-2.030976e-005,1.476487e-005
1.103824e+000,-2.232395e-005,1.479314e-005
1.104618e+000,-2.098116e-005,1.482484e-005
1.105412e+000,-1.829557e-005,1.485596e-005
1.106206e+000,-2.030976e-005,1.486792e-005
1.107000e+000,-1.695277e-005,1.488818e-005
1.107794e+000,-1.493858e-005,1.490104e-005
1.108588e+000,-1.628138e-005,1.490415e-005
1.109382e+000,-1.460288e-005,1.491272e-005
1.110176e+000,-1.326009e-005,1.491166e-005
1.110971e+000,-1.292439e-005,1.490971e-005
1.111765e+000,-1.376364e-005,1.491152e-005
1.112559e+000,-1.225299e-005,1.491571e-005
1.113353e+000,-1.326009e-005,1.491824e-005
1.114147e+000,-1.628138e-005,1.492269e-005
1.114941e+000,-1.174945e-005,1.493978e-005
1.115735e+000,-1.023880e-005,1.493479e-005
1.116529e+000,-1.124590e-005,1.491652e-005
1.117324e+000,-1.225299e-005,1.491310e-005
1.118118e+000,-1.057450e-005,1.491310e-005
1.118912e+000,-1.359579e-005,1.490121e-005
1.119706e+000,-1.191730e-005,1.489145e-005
1.120500e+000,-1.023880e-005,1.487528e-005
1.121294e+000,-9.567407e-006,1.485812e-005
1.122088e+000,-9.567407e-006,1.484067e-005
1.122882e+000,-8.224612e-006,1.482085e-005
1.123676e+000,-1.091020e-005,1.479722e-005
1.124471e+000,-1.225299e-005,1.479014e-005
1.125265e+000,-9.903105e-006,1.479309e-005
1.126059e+000,-1.124590e-005,1.478275e-005
1.126853e+000,-1.493858e-005,1.476540e-005
1.127647e+000,-1.493858e-005,1.477238e-005
1.128441e+000,-1.762417e-005,1.478438e-005
1.129235e+000,-1.628138e-005,1.479936e-005
1.130029e+000,-1.292439e-005,1.480991e-005
1.130824e+000,-1.292439e-005,1.480799e-005
1.131618e+000,-1.393149e-005,1.480508e-005
1.132412e+000,-1.527428e-005,1.481468e-005
1.133206e+000,-1.661708e-005,1.482696e-005
1.134000e+000,-1.661708e-005,1.483959e-005
1.134794e+000,-1.930266e-005,1.485643e-005
1.135588e+000,-2.098116e-005,1.488785e-005
1.136382e+000,-2.165255e-005,1.492331e-005
1.137176e+000,-1.628138e-005,1.495260e-005
1.137971e+000,-9.567407e-006,1.496016e-005
1.138765e+000,-8.224612e-006,1.495022e-005
1.139559e+000,-1.225299e-005,1.492680e-005
1.140353e+000,-1.191730e-005,1.491453e-005
1.141147e+000,-8.224612e-006,1.489652e-005
1.141941e+000,-4.867628e-006,1.487540e-005
1.142735e+000,-7.217518e-006,1.484715e-005
1.143529e+000,-9.567407e-006,1.481411e-005
1.144324e+000,-1.023880e-005,1.478991e-005
1.145118e+000,-1.158160e-005,1.477024e-005
1.145912e+000,-1.359579e-005,1.474310e-005
1.146706e+000,-1.426719e-005,1.472139e-005
1.147500e+000,-1.577783e-005,1.471817e-005
1.148294e+000,-1.594568e-005,1.472308e-005
1.149088e+000,-1.628138e-005,1.472423e-005
1.149882e+000,-1.762417e-005,1.472423e-005
1.150676e+000,-2.030976e-005,1.472796e-005
1.151471e+000,-1.863127e-005,1.473636e-005
1.152265e+000,-1.560998e-005,1.474157e-005
1.153059e+000,-1.577783e-005,1.473685e-005
1.153853e+000,-1.712062e-005,1.473269e-005
1.154647e+000,-1.661708e-005,1.473572e-005
1.155441e+000,-1.695277e-005,1.473199e-005
1.156235e+000,-1.863127e-005,1.473672e-005
1.157029e+000,-2.198825e-005,1.475011e-005
1.157824e+000,-2.433814e-005,1.477483e-005
1.158618e+000,-2.333104e-005,1.480517e-005
1.159412e+000,-2.198825e-005,1.482769e-005
1.160206e+000,-2.064546e-005,1.484625e-005
1.161000e+000,-1.628138e-005,1.485130e-005
1.161794e+000,-1.661708e-005,1.485841e-005
1.162588e+000,-1.695277e-005,1.487675e-005
1.163382e+000,-1.493858e-005,1.489770e-005
1.164176e+000,-1.443504e-005,1.491432e-005
1.164971e+000,-1.460288e-005,1.492811e-005
1.165765e+000,-1.292439e-005,1.494757e-005
1.166559e+000,-8.896010e-006,1.496031e-005
1.167353e+000,-1.091020e-005,1.495758e-005
1.168147e+000,-1.091020e-005,1.495200e-005
1.168941e+000,-1.225299e-005,1.494091e-005
1.169735e+000,-1.560998e-005,1.493721e-005
1.170529e+000,-1.426719e-005,1.494538e-005
1.171324e+000,-1.158160e-005,1.494927e-005
1.172118e+000,-1.225299e-005,1.493870e-005
1.172912e+000,-1.258869e-005,1.492158e-005
1.173706e+000,-1.091020e-005,1.491414e-005
1.174500e+000,-1.040665e-005,1.490613e-005
1.175294e+000,-7.553216e-006,1.490792e-005
1.176088e+000,-9.567407e-006,1.490556e-005
1.176882e+000,-1.292439e-005,1.490623e-005
1.177676e+000,-1.426719e-005,1.490623e-005
1.178471e+000,-1.359579e-005,1.490823e-005
1.179265e+000,-1.225299e-005,1.491194e-005
1.180059e+000,-1.225299e-005,1.490623e-005
1.180853e+000,-1.628138e-005,1.488517e-005
1.181647e+000,-1.661708e-005,1.487772e-005
1.182441e+000,-1.829557e-005,1.487145e-005
1.183235e+000,-1.661708e-005,1.487528e-005
1.184029e+000,-1.258869e-005,1.487096e-005
1.184824e+000,-1.493858e-005,1.484300e-005
1.185618e+000,-1.292439e-005,1.481017e-005
1.186412e+000,-1.225299e-005,1.475713e-005
1.187206e+000,-1.158160e-005,1.471453e-005
1.188000e+000,-1.091020e-005,1.468289e-005
1.188794e+000,-9.903105e-006,1.466210e-005
1.189588e+000,-1.225299e-005,1.464627e-005
1.190382e+000,-1.359579e-005,1.463833e-005
1.191176e+000,-1.225299e-005,1.463630e-005
1.191971e+000,-9.903105e-006,1.463202e-005
1.192765e+000,-9.567407e-006,1.462257e-005
1.193559e+000,-9.903105e-006,1.461037e-005
1.194353e+000,-1.359579e-005,1.460285e-005
1.195147e+000,-1.426719e-005,1.460838e-005
1.195941e+000,-1.326009e-005,1.462059e-005
1.196735e+000,-1.527428e-005,1.461757e-005
1.197529e+000,-1.896696e-005,1.461411e-005
1.198324e+000,-1.560998e-005,1.464185e-005
1.199118e+000,-1.426719e-005,1.465839e-005
1.199912e+000,-1.560998e-005,1.467055e-005
1.200706e+000,-1.493858e-005,1.468706e-005
1.201500e+000,-1.393149e-005,1.469671e-005
1.202294e+000,-1.258869e-005,1.469516e-005
1.203088e+000,-1.158160e-005,1.468535e-005
1.203882e+000,-1.426719e-005,1.466872e-005
1.204676e+000,-1.560998e-005,1.466204e-005
1.205471e+000,-1.158160e-005,1.466743e-005
1.206265e+000,-1.091020e-005,1.466192e-005
1.207059e+000,-1.560998e-005,1.466192e-005
1.207853e+000,-1.863127e-005,1.467699e-005
1.208647e+000,-1.829557e-005,1.469790e-005
1.209441e+000,-2.064546e-005,1.472352e-005
1.210235e+000,-2.098116e-005,1.475896e-005
1.211029e+000,-1.896696e-005,1.479654e-005
1.211824e+000,-1.695277e-005,1.482670e-005
1.212618e+000,-1.560998e-005,1.484099e-005
1.213412e+000,-1.393149e-005,1.484530e-005
1.214206e+000,-1.712062e-005,1.484218e-005
1.215000e+000,-1.695277e-005,1.484968e-005
1.215794e+000,-1.980621e-005,1.486258e-005
1.216588e+000,-1.930266e-005,1.488069e-005
1.217382e+000,-2.030976e-005,1.489448e-005
1.218176e+000,-2.299535e-005,1.491362e-005
1.218971e+000,-1.493858e-005,1.495030e-005
1.219765e+000,-7.553216e-006,1.494812e-005
1.220559e+000,-4.531929e-006,1.492594e-005
1.221353e+000,-4.867628e-006,1.490840e-005
1.222147e+000,-6.881819e-006,1.489118e-005
1.222941e+000,-6.881819e-006,1.487548e-005
1.223735e+000,-4.531929e-006,1.486266e-005
1.224529e+000,-7.553216e-006,1.484788e-005
1.225324e+000,-7.553216e-006,1.483513e-005
1.226118e+000,-6.210422e-006,1.482141e-005
1.226912e+000,-8.224612e-006,1.480156e-005
1.227706e+000,-1.191730e-005,1.479399e-005
1.228500e+000,-1.560998e-005,1.479566e-005
1.229294e+000,-1.493858e-005,1.480572e-005
1.230088e+000,-1.326009e-005,1.481268e-005
1.230882e+000,-1.527428e-005,1.480650e-005
1.231676e+000,-1.762417e-005,1.480068e-005
1.232471e+000,-1.426719e-005,1.480439e-005
1.233265e+000,-1.326009e-005,1.480541e-005
1.234059e+000,-1.393149e-005,1.480032e-005
1.234853e+000,-1.426719e-005,1.478451e-005
1.235647e+000,-1.426719e-005,1.477169e-005
1.236441e+000,-1.359579e-005,1.475754e-005
1.237235e+000,-1.376364e-005,1.475341e-005
1.238029e+000,-1.762417e-005,1.474755e-005
1.238824e+000,-1.795987e-005,1.475247e-005
1.239618e+000,-1.695277e-005,1.475867e-005
1.240412e+000,-1.493858e-005,1.475223e-005
1.241206e+000,-1.795987e-005,1.474529e-005
1.242000e+000,-1.896696e-005,1.474785e-005
1.242794e+000,-1.846342e-005,1.475806e-005
1.243588e+000,-1.896696e-005,1.477489e-005
1.244382e+000,-1.510643e-005,1.479657e-005
1.245176e+000,-1.225299e-005,1.480669e-005
1.245971e+000,-1.393149e-005,1.480669e-005
1.246765e+000,-1.359579e-005,1.481905e-005
1.247559e+000,-1.292439e-005,1.483040e-005
1.248353e+000,-1.225299e-005,1.483708e-005
1.249147e+000,-1.493858e-005,1.483526e-005
1.249941e+000,-1.493858e-005,1.484310e-005
1.250735e+000,-1.560998e-005,1.485093e-005
1.251529e+000,-1.762417e-005,1.486979e-005
1.252324e+000,-1.628138e-005,1.489579e-005
1.253118e+000,-1.896696e-005,1.490338e-005
1.253912e+000,-1.795987e-005,1.492395e-005
1.254706e+000,-1.493858e-005,1.494145e-005
1.255500e+000,-1.091020e-005,1.494743e-005
1.256294e+000,-1.040665e-005,1.493128e-005
1.257088e+000,-1.292439e-005,1.490968e-005
1.257882e+000,-1.359579e-005,1.490369e-005
1.258676e+000,-1.225299e-005,1.489960e-005
1.259471e+000,-1.225299e-005,1.487298e-005
1.260265e+000,-1.225299e-005,1.485052e-005
1.261059e+000,-1.258869e-005,1.482524e-005
1.261853e+000,-1.359579e-005,1.480630e-005
1.262647e+000,-1.393149e-005,1.478610e-005
1.263441e+000,-1.023880e-005,1.476256e-005
1.264235e+000,-8.224612e-006,1.472859e-005
1.265029e+000,-8.224612e-006,1.469835e-005
1.265824e+000,-1.158160e-005,1.467200e-005
1.266618e+000,-1.225299e-005,1.465778e-005
1.267412e+000,-1.359579e-005,1.464034e-005
1.268206e+000,-1.829557e-005,1.463161e-005
1.269000e+000,-1.863127e-005,1.464791e-005
1.269794e+000,-1.695277e-005,1.466351e-005
1.270588e+000,-1.728847e-005,1.467657e-005
1.271382e+000,-1.728847e-005,1.469761e-005
1.272176e+000,-1.695277e-005,1.471709e-005
1.272971e+000,-1.376364e-005,1.473366e-005
1.273765e+000,-1.443504e-005,1.473964e-005
1.274559e+000,-1.628138e-005,1.474593e-005
1.275353e+000,-1.661708e-005,1.474767e-005
1.276147e+000,-1.829557e-005,1.476037e-005
1.276941e+000,-1.460288e-005,1.478027e-005
1.277735e+000,-1.510643e-005,1.478131e-005
1.278529e+000,-1.913481e-005,1.479307e-005
1.279324e+000,-1.460288e-005,1.482117e-005
1.280118e+000,-1.426719e-005,1.483492e-005
1.280912e+000,-1.426719e-005,1.484826e-005
1.281706e+000,-1.359579e-005,1.486160e-005
1.282500e+000,-1.527428e-005,1.486061e-005
1.283294e+000,-1.426719e-005,1.486580e-005
1.284088e+000,-1.359579e-005,1.487152e-005
1.284882e+000,-1.594568e-005,1.486952e-005
1.285676e+000,-1.510643e-005,1.486090e-005
1.286471e+000,-1.292439e-005,1.485143e-005
1.287265e+000,-1.258869e-005,1.484092e-005
1.288059e+000,-1.292439e-005,1.482829e-005
1.288853e+000,-1.493858e-005,1.481776e-005
1.289647e+000,-1.376364e-005,1.482379e-005
1.290441e+000,-1.493858e-005,1.482329e-005
1.291235e+000,-1.493858e-005,1.483068e-005
1.292029e+000,-1.493858e-005,1.484338e-005
1.292824e+000,-1.628138e-005,1.485032e-005
1.293618e+000,-1.661708e-005,1.486436e-005
1.294412e+000,-1.527428e-005,1.487695e-005
1.295206e+000,-1.225299e-005,1.488165e-005
1.296000e+000,-1.359579e-005,1.487383e-005
1.296794e+000,-1.174945e-005,1.486753e-005
1.297588e+000,-1.158160e-005,1.486535e-005
1.298382e+000,-1.023880e-005,1.486811e-005
1.299176e+000,-1.158160e-005,1.486811e-005
1.299971e+000,-1.493858e-005,1.486459e-005
1.300765e+000,-1.829557e-005,1.487412e-005
1.301559e+000,-1.762417e-005,1.489387e-005
1.302353e+000,-1.762417e-005,1.491586e-005
1.303147e+000,-1.359579e-005,1.494393e-005
1.303941e+000,-1.359579e-005,1.495094e-005
1.304735e+000,-1.426719e-005,1.494240e-005
1.305529e+000,-1.409934e-005,1.493223e-005
1.306324e+000,-1.292439e-005,1.491229e-005
1.307118e+000,-1.191730e-005,1.489372e-005
1.307912e+000,-1.225299e-005,1.487042e-005
1.308706e+000,-1.309224e-005,1.485692e-005
1.309500e+000,-1.695277e-005,1.485920e-005
1.310294e+000,-1.913481e-005,1.487562e-005
1.311088e+000,-2.030976e-005,1.489501e-005
1.311882e+000,-1.695277e-005,1.491524e-005
1.312676e+000,-1.728847e-005,1.492419e-005
1.313471e+000,-1.762417e-005,1.493731e-005
1.314265e+000,-1.493858e-005,1.494973e-005
1.315059e+000,-1.326009e-005,1.494288e-005
1.315853e+000,-1.695277e-005,1.490356e-005
1.316647e+000,-1.762417e-005,1.488723e-005
1.317441e+000,-1.762417e-005,1.489658e-005
1.318235e+000,-1.963836e-005,1.490592e-005
1.319029e+000,-1.712062e-005,1.492108e-005
1.319824e+000,-1.527428e-005,1.492169e-005
1.320618e+000,-1.326009e-005,1.490819e-005
1.321412e+000,-8.560311e-006,1.488142e-005
1.322206e+000,-6.546120e-006,1.485074e-005
1.323000e+000,-5.035477e-006,1.482450e-005
1.323794e+000,-3.524834e-006,1.478853e-005
1.324588e+000,-5.539025e-006,1.475379e-005
1.325382e+000,-9.735256e-006,1.471823e-005
1.326176e+000,-1.359579e-005,1.468673e-005
1.326971e+000,-1.393149e-005,1.465590e-005
1.327765e+000,-1.292439e-005,1.464061e-005
1.328559e+000,-5.874723e-006,1.463612e-005
1.329353e+000,-2.517739e-006,1.461219e-005
1.330147e+000,-1.678492e-006,1.457899e-005
1.330941e+000,-4.196231e-006,1.455491e-005
1.331735e+000,-8.560311e-006,1.454610e-005
1.332529e+000,-1.124590e-005,1.454410e-005
1.333324e+000,-1.292439e-005,1.454793e-005
1.334118e+000,-1.661708e-005,1.455584e-005
1.334912e+000,-1.863127e-005,1.457801e-005
1.335706e+000,-1.560998e-005,1.460590e-005
1.336500e+000,-1.829557e-005,1.462248e-005
1.337294e+000,-1.829557e-005,1.464673e-005
1.338088e+000,-1.896696e-005,1.467170e-005
1.338882e+000,-1.560998e-005,1.470213e-005
1.339676e+000,-1.393149e-005,1.471994e-005
1.340471e+000,-1.359579e-005,1.473931e-005
1.341265e+000,-1.158160e-005,1.475671e-005
1.342059e+000,-1.493858e-005,1.476787e-005
1.342853e+000,-1.829557e-005,1.477909e-005
1.343647e+000,-1.963836e-005,1.480069e-005
1.344441e+000,-1.762417e-005,1.482419e-005
1.345235e+000,-1.628138e-005,1.484475e-005
1.346029e+000,-1.510643e-005,1.484925e-005
1.346824e+000,-1.661708e-005,1.484041e-005
1.347618e+000,-1.426719e-005,1.483671e-005
1.348412e+000,-1.560998e-005,1.481994e-005
1.349206e+000,-1.628138e-005,1.478927e-005
1.350000e+000,-1.628138e-005,1.474674e-005
1.350794e+000,-1.795987e-005,1.470777e-005
1.351588e+000,-1.644922e-005,1.469503e-005
1.352382e+000,-1.560998e-005,1.469196e-005
1.353176e+000,-1.695277e-005,1.467365e-005
1.353971e+000,-1.896696e-005,1.465074e-005
1.354765e+000,-1.896696e-005,1.464200e-005
1.355559e+000,-2.030976e-005,1.464472e-005
1.356353e+000,-1.762417e-005,1.464472e-005
1.357147e+000,-1.191730e-005,1.464724e-005
1.357941e+000,-9.567407e-006,1.463842e-005
1.358735e+000,-1.091020e-005,1.461953e-005
1.359529e+000,-1.393149e-005,1.460926e-005
1.360324e+000,-1.560998e-005,1.461125e-005
1.361118e+000,-1.695277e-005,1.461960e-005
1.361912e+000,-1.426719e-005,1.463026e-005
1.362706e+000,-1.158160e-005,1.463608e-005
1.363500e+000,-9.903105e-006,1.463154e-005
1.364294e+000,-9.231709e-006,1.461335e-005
1.365088e+000,-1.023880e-005,1.460760e-005
1.365882e+000,-1.023880e-005,1.460760e-005
1.366676e+000,-8.224612e-006,1.460524e-005
1.367471e+000,-8.896010e-006,1.459624e-005
1.368265e+000,-1.258869e-005,1.459268e-005
1.369059e+000,-1.258869e-005,1.458980e-005
1.369853e+000,-1.493858e-005,1.459159e-005
1.370647e+000,-1.795987e-005,1.460450e-005
1.371441e+000,-1.795987e-005,1.462967e-005
1.372235e+000,-1.997406e-005,1.465479e-005
1.373029e+000,-1.930266e-005,1.469075e-005
1.373824e+000,-1.963836e-005,1.471821e-005
1.374618e+000,-1.930266e-005,1.474366e-005
1.375412e+000,-1.963836e-005,1.477328e-005
1.376206e+000,-2.098116e-005,1.480119e-005
1.377000e+000,-2.131685e-005,1.482453e-005
1.377794e+000,-1.728847e-005,1.484935e-005
1.378588e+000,-1.426719e-005,1.484809e-005
1.379382e+000,-1.695277e-005,1.484149e-005
1.380176e+000,-1.762417e-005,1.485440e-005
1.380971e+000,-1.628138e-005,1.486978e-005
1.381765e+000,-1.426719e-005,1.487738e-005
1.382559e+000,-1.628138e-005,1.487420e-005
1.383353e+000,-1.762417e-005,1.487301e-005
1.384147e+000,-1.493858e-005,1.487670e-005
1.384941e+000,-9.567407e-006,1.486070e-005
1.385735e+000,-8.224612e-006,1.482329e-005
1.386529e+000,-9.567407e-006,1.478013e-005
1.387324e+000,-8.560311e-006,1.476142e-005
1.388118e+000,-8.896010e-006,1.475945e-005
1.388912e+000,-8.224612e-006,1.476070e-005
1.389706e+000,-8.560311e-006,1.475179e-005
1.390500e+000,-9.903105e-006,1.474437e-005
1.391294e+000,-1.158160e-005,1.474766e-005
1.392088e+000,-1.124590e-005,1.475958e-005
1.392882e+000,-1.225299e-005,1.476760e-005
1.393676e+000,-1.258869e-005,1.477392e-005
1.394471e+000,-1.225299e-005,1.477970e-005
1.395265e+000,-1.242084e-005,1.478142e-005
1.396059e+000,-1.359579e-005,1.477813e-005
1.396853e+000,-1.292439e-005,1.477611e-005
1.397647e+000,-1.225299e-005,1.476728e-005
1.398441e+000,-8.896010e-006,1.475605e-005
1.399235e+000,-1.460288e-005,1.473597e-005
1.400029e+000,-1.309224e-005,1.472544e-005
1.400824e+000,-1.460288e-005,1.469935e-005
1.401618e+000,-1.493858e-005,1.468484e-005
1.402412e+000,-1.359579e-005,1.468262e-005
1.403206e+000,-1.359579e-005,1.467567e-005
1.404000e+000,-1.628138e-005,1.466391e-005
1.404794e+000,-1.560998e-005,1.466271e-005
1.405588e+000,-1.309224e-005,1.465797e-005
1.406382e+000,-1.493858e-005,1.463886e-005
1.407176e+000,-1.628138e-005,1.461052e-005
1.407971e+000,-1.762417e-005,1.457481e-005
1.408765e+000,-1.628138e-005,1.454925e-005
1.409559e+000,-1.460288e-005,1.452533e-005
1.410353e+000,-1.762417e-005,1.450196e-005
1.411147e+000,-1.829557e-005,1.450696e-005
1.411941e+000,-1.896696e-005,1.451339e-005
1.412735e+000,-1.695277e-005,1.452132e-005
1.413529e+000,-1.443504e-005,1.452837e-005
1.414324e+000,-1.426719e-005,1.452837e-005
1.415118e+000,-1.544213e-005,1.452730e-005
1.415912e+000,-1.695277e-005,1.453513e-005
1.416706e+000,-2.098116e-005,1.455793e-005
1.417500e+000,-1.628138e-005,1.459301e-005
1.418294e+000,-1.493858e-005,1.460894e-005
1.419088e+000,-1.762417e-005,1.461690e-005
1.419882e+000,-1.695277e-005,1.462419e-005
1.420676e+000,-1.493858e-005,1.463332e-005
1.421471e+000,-1.493858e-005,1.464300e-005
1.422265e+000,-1.292439e-005,1.465094e-005
1.423059e+000,-1.426719e-005,1.465187e-005
1.423853e+000,-1.225299e-005,1.466105e-005
1.424647e+000,-1.107805e-005,1.466559e-005
1.425441e+000,-1.225299e-005,1.467272e-005
1.426235e+000,-1.174945e-005,1.467908e-005
1.427029e+000,-1.258869e-005,1.467594e-005
1.427824e+000,-1.023880e-005,1.467105e-005
1.428618e+000,-9.567407e-006,1.466236e-005
1.429412e+000,-8.896010e-006,1.465599e-005
1.430206e+000,-9.567407e-006,1.464828e-005
1.431000e+000,-1.023880e-005,1.462940e-005
1.431794e+000,-8.224612e-006,1.461074e-005
1.432588e+000,-7.888914e-006,1.458160e-005
1.433382e+000,-8.896010e-006,1.455823e-005
1.434176e+000,-7.385367e-006,1.454955e-005
1.434971e+000,-7.049668e-006,1.453108e-005
1.435765e+000,-6.881819e-006,1.451822e-005
1.436559e+000,-1.091020e-005,1.450694e-005
1.437353e+000,-1.091020e-005,1.450528e-005
1.438147e+000,-1.560998e-005,1.450528e-005
1.438941e+000,-1.560998e-005,1.452126e-005
1.439735e+000,-1.930266e-005,1.453151e-005
1.440529e+000,-2.400244e-005,1.455207e-005
1.441324e+000,-2.433814e-005,1.459861e-005
1.442118e+000,-2.316319e-005,1.465242e-005
1.442912e+000,-2.131685e-005,1.470070e-005
1.443706e+000,-2.299535e-005,1.473925e-005
1.444500e+000,-1.577783e-005,1.477636e-005
1.445294e+000,-1.258869e-005,1.478125e-005
1.446088e+000,-9.903105e-006,1.477938e-005
1.446882e+000,-1.191730e-005,1.476481e-005
1.447676e+000,-1.762417e-005,1.474131e-005
1.448471e+000,-1.963836e-005,1.474854e-005
1.449265e+000,-1.695277e-005,1.476818e-005
1.450059e+000,-1.359579e-005,1.477290e-005
1.450853e+000,-1.493858e-005,1.476877e-005
1.451647e+000,-1.628138e-005,1.477190e-005
1.452441e+000,-2.198825e-005,1.478339e-005
1.453235e+000,-2.165255e-005,1.482097e-005
1.454029e+000,-1.997406e-005,1.484945e-005
1.454824e+000,-2.165255e-005,1.486609e-005
1.455618e+000,-1.963836e-005,1.490190e-005
1.456412e+000,-1.695277e-005,1.493036e-005
1.457206e+000,-1.594568e-005,1.493502e-005
1.458000e+000,-1.560998e-005,1.492512e-005
1.458794e+000,-1.174945e-005,1.491540e-005
1.459588e+000,-1.560998e-005,1.488460e-005
1.460382e+000,-1.762417e-005,1.486356e-005
1.461176e+000,-1.359579e-005,1.485830e-005
1.461971e+000,-1.124590e-005,1.484730e-005
1.462765e+000,-1.527428e-005,1.483473e-005
1.463559e+000,-1.493858e-005,1.483894e-005
1.464353e+000,-1.023880e-005,1.483143e-005
1.465147e+000,-1.023880e-005,1.481182e-005
1.465941e+000,-1.493858e-005,1.478088e-005
1.466735e+000,-1.326009e-005,1.476477e-005
1.467529e+000,-1.695277e-005,1.473923e-005
1.468324e+000,-1.695277e-005,1.471313e-005
1.469118e+000,-1.326009e-005,1.472008e-005
1.469912e+000,-1.158160e-005,1.473292e-005
1.470706e+000,-1.091020e-005,1.474519e-005
1.471500e+000,-1.023880e-005,1.475548e-005
1.472294e+000,-1.107805e-005,1.476169e-005
1.473088e+000,-1.443504e-005,1.476981e-005
1.473882e+000,-1.510643e-005,1.479005e-005
1.474676e+000,-1.560998e-005,1.480847e-005
1.475471e+000,-1.628138e-005,1.482852e-005
1.476265e+000,-1.527428e-005,1.485282e-005
1.477059e+000,-1.292439e-005,1.487057e-005
1.477853e+000,-1.158160e-005,1.487325e-005
1.478647e+000,-1.326009e-005,1.486152e-005
1.479441e+000,-1.426719e-005,1.485645e-005
1.480235e+000,-1.577783e-005,1.485942e-005
1.481029e+000,-1.560998e-005,1.486109e-005
1.481824e+000,-1.359579e-005,1.485392e-005
1.482618e+000,-1.527428e-005,1.485191e-005
1.483412e+000,-1.628138e-005,1.485808e-005
1.484206e+000,-1.896696e-005,1.486568e-005
1.485000e+000,-1.795987e-005,1.488240e-005
1.485794e+000,-1.762417e-005,1.489513e-005
1.486588e+000,-1.560998e-005,1.490857e-005
1.487382e+000,-1.057450e-005,1.491436e-005
1.488176e+000,-1.191730e-005,1.489312e-005
1.488971e+000,-9.903105e-006,1.487381e-005
1.489765e+000,-1.225299e-005,1.485352e-005
1.490559e+000,-1.225299e-005,1.484569e-005
1.491353e+000,-1.393149e-005,1.482719e-005
1.492147e+000,-1.359579e-005,1.480939e-005
1.492941e+000,-1.326009e-005,1.479260e-005
1.493735e+000,-1.091020e-005,1.477279e-005
1.494529e+000,-1.225299e-005,1.476102e-005
1.495324e+000,-1.242084e-005,1.476102e-005
1.496118e+000,-9.567407e-006,1.475672e-005
1.496912e+000,-9.903105e-006,1.474665e-005
1.497706e+000,-1.258869e-005,1.473920e-005
1.498500e+000,-9.903105e-006,1.474010e-005
1.499294e+000,-8.224612e-006,1.472658e-005
1.500088e+000,-7.217518e-006,1.470976e-005
1.500882e+000,-5.203327e-006,1.468900e-005
1.501676e+000,-8.728161e-006,1.465823e-005
1.502471e+000,-1.225299e-005,1.463770e-005
1.503265e+000,-1.023880e-005,1.461488e-005
1.504059e+000,-6.210422e-006,1.459114e-005
1.504853e+000,-8.896010e-006,1.457098e-005
1.505647e+000,-1.225299e-005,1.456662e-005
1.506441e+000,-1.376364e-005,1.457119e-005
1.507235e+000,-1.258869e-005,1.457364e-005
1.508029e+000,-1.443504e-005,1.457076e-005
1.508824e+000,-1.695277e-005,1.457712e-005
1.509618e+000,-1.963836e-005,1.459210e-005
1.510412e+000,-2.064546e-005,1.461778e-005
1.511206e+000,-2.030976e-005,1.464692e-005
1.512000e+000,-2.030976e-005,1.467165e-005
1.512794e+000,-2.131685e-005,1.469534e-005
1.513588e+000,-2.333104e-005,1.473317e-005
1.514382e+000,-2.366674e-005,1.478460e-005
1.515176e+000,-2.030976e-005,1.483754e-005
1.515971e+000,-2.232395e-005,1.486739e-005
1.516765e+000,-2.030976e-005,1.490464e-005
1.517559e+000,-1.896696e-005,1.492894e-005
1.518353e+000,-1.863127e-005,1.493160e-005
1.519147e+000,-1.695277e-005,1.493160e-005
1.519941e+000,-1.493858e-005,1.493160e-005
1.520735e+000,-1.292439e-005,1.492353e-005
1.521529e+000,-1.359579e-005,1.490945e-005
1.522324e+000,-1.510643e-005,1.489850e-005
1.523118e+000,-1.258869e-005,1.490264e-005
1.523912e+000,-1.393149e-005,1.489731e-005
1.524706e+000,-1.292439e-005,1.488972e-005
1.525500e+000,-1.158160e-005,1.487804e-005
1.526294e+000,-1.023880e-005,1.485656e-005
1.527088e+000,-1.057450e-005,1.484494e-005
1.527882e+000,-8.896010e-006,1.483245e-005
1.528676e+000,-7.553216e-006,1.480160e-005
1.529471e+000,-6.881819e-006,1.478479e-005
1.530265e+000,-8.896010e-006,1.476796e-005
1.531059e+000,-9.063859e-006,1.475454e-005
1.531853e+000,-1.158160e-005,1.474345e-005
1.532647e+000,-1.091020e-005,1.473273e-005
1.533441e+000,-1.124590e-005,1.472360e-005
1.534235e+000,-9.567407e-006,1.471728e-005
1.535029e+000,-9.903105e-006,1.469966e-005
1.535824e+000,-1.023880e-005,1.468556e-005
1.536618e+000,-1.091020e-005,1.467881e-005
1.537412e+000,-1.091020e-005,1.467453e-005
1.538206e+000,-1.460288e-005,1.466932e-005
1.539000e+000,-1.426719e-005,1.466825e-005
1.539794e+000,-1.426719e-005,1.466978e-005
1.540588e+000,-1.426719e-005,1.466765e-005
1.541382e+000,-1.376364e-005,1.466552e-005
1.542176e+000,-1.493858e-005,1.466186e-005
1.542971e+000,-1.695277e-005,1.465731e-005
1.543765e+000,-1.762417e-005,1.465853e-005
1.544559e+000,-1.795987e-005,1.466693e-005
1.545353e+000,-1.863127e-005,1.468563e-005
1.546147e+000,-1.829557e-005,1.470322e-005
1.546941e+000,-2.400244e-005,1.472450e-005
1.547735e+000,-2.366674e-005,1.477222e-005
1.548529e+000,-1.829557e-005,1.482122e-005
1.549324e+000,-1.829557e-005,1.484275e-005
1.550118e+000,-1.628138e-005,1.485472e-005
1.550912e+000,-1.560998e-005,1.484725e-005
1.551706e+000,-1.426719e-005,1.484007e-005
1.552500e+000,-9.903105e-006,1.482858e-005
1.553294e+000,-7.888914e-006,1.481926e-005
1.554088e+000,-8.896010e-006,1.480608e-005
1.554882e+000,-9.567407e-006,1.479269e-005
1.555676e+000,-9.567407e-006,1.478114e-005
1.556471e+000,-1.443504e-005,1.477300e-005
1.557265e+000,-1.393149e-005,1.478015e-005
1.558059e+000,-1.762417e-005,1.478489e-005
1.558853e+000,-2.299535e-005,1.479987e-005
1.559647e+000,-2.198825e-005,1.482582e-005
1.560441e+000,-2.030976e-005,1.483842e-005
1.561235e+000,-2.333104e-005,1.483842e-005
1.562029e+000,-2.047761e-005,1.486597e-005
1.562824e+000,-1.896696e-005,1.487886e-005
1.563618e+000,-1.896696e-005,1.488412e-005
1.564412e+000,-1.426719e-005,1.489872e-005
1.565206e+000,-1.426719e-005,1.490169e-005
1.566000e+000,-1.661708e-005,1.489273e-005
1.566794e+000,-1.426719e-005,1.488904e-005
1.567588e+000,-1.762417e-005,1.487758e-005
1.568382e+000,-1.560998e-005,1.486955e-005
1.569176e+000,-1.292439e-005,1.486425e-005
1.569971e+000,-1.326009e-005,1.485715e-005
1.570765e+000,-1.695277e-005,1.485715e-005
1.571559e+000,-1.762417e-005,1.488008e-005
1.572353e+000,-1.091020e-005,1.490871e-005
1.573147e+000,-1.292439e-005,1.491871e-005
1.573941e+000,-9.567407e-006,1.493521e-005
1.574735e+000,-9.567407e-006,1.494169e-005
1.575529e+000,-1.359579e-005,1.494135e-005
1.576324e+000,-1.326009e-005,1.494135e-005
1.577118e+000,-1.242084e-005,1.493940e-005
1.577912e+000,-1.359579e-005,1.493804e-005
1.578706e+000,-1.426719e-005,1.495406e-005
1.579500e+000,-1.795987e-005,1.497504e-005
1.580294e+000,-1.577783e-005,1.500900e-005
1.581088e+000,-1.560998e-005,1.503352e-005
1.581882e+000,-1.359579e-005,1.505156e-005
1.582676e+000,-1.158160e-005,1.505774e-005
1.583471e+000,-1.158160e-005,1.505426e-005
1.584265e+000,-1.628138e-005,1.503923e-005
1.585059e+000,-1.661708e-005,1.503054e-005
1.585853e+000,-1.493858e-005,1.503398e-005
1.586647e+000,-1.393149e-005,1.502216e-005
1.587441e+000,-9.903105e-006,1.500724e-005
1.588235e+000,-6.210422e-006,1.497945e-005
1.589029e+000,-4.867628e-006,1.495763e-005
1.589824e+000,-5.539025e-006,1.493948e-005
1.590618e+000,-4.531929e-006,1.492304e-005
1.591412e+000,-7.217518e-006,1.491091e-005
1.592206e+000,-9.567407e-006,1.489263e-005
1.593000e+000,-1.258869e-005,1.486661e-005
1.593794e+000,-1.493858e-005,1.484225e-005
1.594588e+000,-1.393149e-005,1.483287e-005
1.595382e+000,-1.292439e-005,1.482524e-005
1.596176e+000,-1.510643e-005,1.481867e-005
1.596971e+000,-1.527428e-005,1.481352e-005
1.597765e+000,-1.426719e-005,1.481672e-005
1.598559e+000,-1.292439e-005,1.481241e-005
1.599353e+000,-1.443504e-005,1.480186e-005
1.600147e+000,-1.443504e-005,1.479576e-005
1.600941e+000,-1.493858e-005,1.478347e-005
1.601735e+000,-1.225299e-005,1.477836e-005
1.602529e+000,-1.258869e-005,1.476828e-005
1.603324e+000,-1.326009e-005,1.475437e-005
1.604118e+000,-1.225299e-005,1.473451e-005
1.604912e+000,-1.359579e-005,1.471184e-005
1.605706e+000,-1.191730e-005,1.468718e-005
1.606500e+000,-1.023880e-005,1.466889e-005
1.607294e+000,-9.567407e-006,1.466485e-005
1.608088e+000,-9.063859e-006,1.466485e-005
1.608882e+000,-7.553216e-006,1.466085e-005
1.609676e+000,-9.903105e-006,1.464596e-005
1.610471e+000,-1.174945e-005,1.463012e-005
1.611265e+000,-1.460288e-005,1.461385e-005
1.612059e+000,-1.896696e-005,1.461491e-005
1.612853e+000,-1.930266e-005,1.463947e-005
1.613647e+000,-1.762417e-005,1.466930e-005
1.614441e+000,-1.930266e-005,1.469374e-005
1.615235e+000,-1.963836e-005,1.472273e-005
1.616029e+000,-2.182040e-005,1.475307e-005
1.616824e+000,-2.433814e-005,1.479710e-005
1.617618e+000,-2.299535e-005,1.485222e-005
1.618412e+000,-2.030976e-005,1.489187e-005
1.619206e+000,-2.232395e-005,1.491901e-005
1.620000e+000,-2.098116e-005,1.494835e-005
1.620794e+000,-1.577783e-005,1.496088e-005
1.621588e+000,-1.829557e-005,1.495304e-005
1.622382e+000,-1.762417e-005,1.494620e-005
1.623176e+000,-1.628138e-005,1.493960e-005
1.623971e+000,-1.863127e-005,1.492674e-005
1.624765e+000,-1.695277e-005,1.492402e-005
1.625559e+000,-1.359579e-005,1.491353e-005
1.626353e+000,-1.393149e-005,1.488624e-005
1.627147e+000,-1.426719e-005,1.485837e-005
1.627941e+000,-1.443504e-005,1.484815e-005
1.628735e+000,-1.359579e-005,1.484867e-005
1.629529e+000,-1.158160e-005,1.483766e-005
1.630324e+000,-1.577783e-005,1.481871e-005
1.631118e+000,-1.661708e-005,1.481698e-005
1.631912e+000,-1.359579e-005,1.482478e-005
1.632706e+000,-1.359579e-005,1.481615e-005
1.633500e+000,-9.567407e-006,1.480263e-005
1.634294e+000,-8.896010e-006,1.478847e-005
1.635088e+000,-1.158160e-005,1.478713e-005
1.635882e+000,-9.231709e-006,1.479429e-005
1.636676e+000,-1.158160e-005,1.479361e-005
1.637471e+000,-1.091020e-005,1.480016e-005
1.638265e+000,-8.560311e-006,1.480445e-005
1.639059e+000,-1.107805e-005,1.480506e-005
1.639853e+000,-1.292439e-005,1.481037e-005
1.640647e+000,-1.393149e-005,1.481779e-005
1.641441e+000,-1.292439e-005,1.482423e-005
1.642235e+000,-1.359579e-005,1.482859e-005
1.643029e+000,-1.258869e-005,1.483231e-005
1.643824e+000,-1.493858e-005,1.483231e-005
1.644618e+000,-1.963836e-005,1.484015e-005
1.645412e+000,-2.433814e-005,1.486496e-005
1.646206e+000,-2.198825e-005,1.490855e-005
1.647000e+000,-1.963836e-005,1.494231e-005
1.647794e+000,-1.493858e-005,1.496738e-005
1.648588e+000,-1.091020e-005,1.498270e-005
1.649382e+000,-5.874723e-006,1.497268e-005
1.650176e+000,-2.853437e-006,1.495812e-005
1.650971e+000,-5.539025e-006,1.493627e-005
1.651765e+000,-5.035477e-006,1.491573e-005
1.652559e+000,-6.546120e-006,1.489870e-005
1.653353e+000,-1.057450e-005,1.488351e-005
1.654147e+000,-1.258869e-005,1.486711e-005
1.654941e+000,-1.527428e-005,1.485798e-005
1.655735e+000,-1.527428e-005,1.486461e-005
1.656529e+000,-1.661708e-005,1.486570e-005
1.657324e+000,-1.728847e-005,1.486688e-005
1.658118e+000,-1.913481e-005,1.486562e-005
1.658912e+000,-1.762417e-005,1.487644e-005
1.659706e+000,-1.829557e-005,1.488686e-005
1.660500e+000,-1.426719e-005,1.488944e-005
1.661294e+000,-1.460288e-005,1.487541e-005
1.662088e+000,-1.829557e-005,1.485972e-005
1.662882e+000,-1.762417e-005,1.486479e-005
1.663676e+000,-1.695277e-005,1.487574e-005
1.664471e+000,-1.628138e-005,1.488471e-005
1.665265e+000,-1.292439e-005,1.488756e-005
1.666059e+000,-1.292439e-005,1.487468e-005
1.666853e+000,-1.678492e-005,1.484541e-005
1.667647e+000,-1.628138e-005,1.484719e-005
1.668441e+000,-1.795987e-005,1.485169e-005
1.669235e+000,-1.728847e-005,1.485297e-005
1.670029e+000,-1.628138e-005,1.485420e-005
1.670824e+000,-1.359579e-005,1.485869e-005
1.671618e+000,-1.376364e-005,1.485459e-005
1.672412e+000,-1.846342e-005,1.485699e-005
1.673206e+000,-1.661708e-005,1.487170e-005
1.674000e+000,-1.359579e-005,1.488519e-005
1.674794e+000,-1.426719e-005,1.489183e-005
1.675588e+000,-1.493858e-005,1.489754e-005
1.676382e+000,-1.527428e-005,1.490664e-005
1.677176e+000,-1.628138e-005,1.491463e-005
1.677971e+000,-1.292439e-005,1.493172e-005
1.678765e+000,-1.258869e-005,1.493977e-005
1.679559e+000,-1.644922e-005,1.494823e-005
1.680353e+000,-1.695277e-005,1.496729e-005
1.681147e+000,-1.695277e-005,1.498670e-005
1.681941e+000,-1.628138e-005,1.501003e-005
1.682735e+000,-1.258869e-005,1.503153e-005
1.683529e+000,-1.560998e-005,1.503994e-005
1.684324e+000,-1.426719e-005,1.505995e-005
1.685118e+000,-1.091020e-005,1.507621e-005
1.685912e+000,-1.225299e-005,1.508377e-005
1.686706e+000,-1.695277e-005,1.508706e-005
1.687500e+000,-1.493858e-005,1.510482e-005
1.688294e+000,-1.292439e-005,1.510265e-005
1.689088e+000,-1.191730e-005,1.509457e-005
1.689882e+000,-1.426719e-005,1.507023e-005
1.690676e+000,-1.158160e-005,1.503081e-005
1.691471e+000,-1.292439e-005,1.498219e-005
1.692265e+000,-1.225299e-005,1.494287e-005
1.693059e+000,-1.359579e-005,1.491041e-005
1.693853e+000,-1.258869e-005,1.487363e-005
1.694647e+000,-1.158160e-005,1.486394e-005
1.695441e+000,-1.225299e-005,1.486133e-005
1.696235e+000,-1.091020e-005,1.486691e-005
1.697029e+000,-1.292439e-005,1.486445e-005
1.697824e+000,-1.292439e-005,1.484906e-005
1.698618e+000,-1.493858e-005,1.482560e-005
1.699412e+000,-1.628138e-005,1.481870e-005
1.700206e+000,-1.762417e-005,1.482732e-005
1.701000e+000,-1.493858e-005,1.483670e-005
1.701794e+000,-1.292439e-005,1.483220e-005
1.702588e+000,-1.057450e-005,1.479819e-005
1.703382e+000,-1.091020e-005,1.475973e-005
1.704176e+000,-1.359579e-005,1.472949e-005
1.704971e+000,-1.560998e-005,1.469876e-005
1.705765e+000,-1.225299e-005,1.468337e-005
1.706559e+000,-1.091020e-005,1.466848e-005
1.707353e+000,-1.158160e-005,1.465379e-005
1.708147e+000,-1.124590e-005,1.464188e-005
1.708941e+000,-1.124590e-005,1.464062e-005
1.709735e+000,-1.359579e-005,1.462787e-005
1.710529e+000,-1.359579e-005,1.461417e-005
1.711324e+000,-1.695277e-005,1.461417e-005
1.712118e+000,-1.661708e-005,1.463170e-005
1.712912e+000,-1.510643e-005,1.463636e-005
1.713706e+000,-1.829557e-005,1.463690e-005
1.714500e+000,-1.829557e-005,1.466189e-005
1.715294e+000,-1.762417e-005,1.468684e-005
1.716088e+000,-1.225299e-005,1.469632e-005
1.716882e+000,-8.896010e-006,1.469354e-005
1.717676e+000,-1.527428e-005,1.467095e-005
1.718471e+000,-1.359579e-005,1.466508e-005
1.719265e+000,-1.359579e-005,1.466606e-005
1.720059e+000,-1.493858e-005,1.467156e-005
1.720853e+000,-1.426719e-005,1.468286e-005
1.721647e+000,-1.359579e-005,1.469356e-005
1.722441e+000,-1.560998e-005,1.470029e-005
1.723235e+000,-1.393149e-005,1.470411e-005
1.724029e+000,-1.426719e-005,1.470042e-005
1.724824e+000,-1.393149e-005,1.469607e-005
1.725618e+000,-1.326009e-005,1.468838e-005
1.726412e+000,-1.426719e-005,1.468215e-005
1.727206e+000,-1.493858e-005,1.468611e-005
1.728000e+000,-1.292439e-005,1.469576e-005
1.728794e+000,-1.393149e-005,1.469480e-005
1.729588e+000,-1.292439e-005,1.469378e-005
1.730382e+000,-1.191730e-005,1.468490e-005
1.731176e+000,-1.225299e-005,1.467387e-005
1.731971e+000,-1.326009e-005,1.467011e-005
1.732765e+000,-1.225299e-005,1.466387e-005
1.733559e+000,-1.326009e-005,1.465138e-005
1.734353e+000,-1.158160e-005,1.463138e-005
1.735147e+000,-1.762417e-005,1.461086e-005
1.735941e+000,-1.762417e-005,1.461086e-005
1.736735e+000,-1.661708e-005,1.461815e-005
1.737529e+000,-1.560998e-005,1.463604e-005
1.738324e+000,-1.762417e-005,1.464709e-005
1.739118e+000,-1.628138e-005,1.467018e-005
1.739912e+000,-1.091020e-005,1.468265e-005
1.740706e+000,-6.881819e-006,1.467928e-005
1.741500e+000,-7.217518e-006,1.466335e-005
1.742294e+000,-6.210422e-006,1.464893e-005
1.743088e+000,-6.546120e-006,1.463400e-005
1.743882e+000,-1.023880e-005,1.462571e-005
1.744676e+000,-1.376364e-005,1.462078e-005
1.745471e+000,-1.661708e-005,1.462461e-005
1.746265e+000,-1.695277e-005,1.464469e-005
1.747059e+000,-1.225299e-005,1.466526e-005
1.747853e+000,-1.292439e-005,1.466436e-005
1.748647e+000,-1.510643e-005,1.467184e-005
1.749441e+000,-1.628138e-005,1.468926e-005
1.750235e+000,-1.628138e-005,1.471233e-005
1.751029e+000,-1.863127e-005,1.473807e-005
1.751824e+000,-1.963836e-005,1.476731e-005
1.752618e+000,-1.896696e-005,1.479269e-005
1.753412e+000,-1.695277e-005,1.482010e-005
1.754206e+000,-1.493858e-005,1.484681e-005
1.755000e+000,-1.225299e-005,1.486225e-005
1.755794e+000,-1.258869e-005,1.486225e-005
1.756588e+000,-1.292439e-005,1.485894e-005
1.757382e+000,-1.225299e-005,1.485985e-005
1.758176e+000,-9.567407e-006,1.485361e-005
1.758971e+000,-9.231709e-006,1.483260e-005
1.759765e+000,-1.107805e-005,1.480031e-005
1.760559e+000,-1.258869e-005,1.476762e-005
1.761353e+000,-1.695277e-005,1.474020e-005
1.762147e+000,-1.695277e-005,1.472668e-005
1.762941e+000,-1.225299e-005,1.470862e-005
1.763735e+000,-1.527428e-005,1.466588e-005
1.764529e+000,-1.762417e-005,1.463035e-005
1.765324e+000,-1.359579e-005,1.461926e-005
1.766118e+000,-1.242084e-005,1.458507e-005
1.766912e+000,-9.903105e-006,1.455685e-005
1.767706e+000,-1.359579e-005,1.452820e-005
1.768500e+000,-1.594568e-005,1.451040e-005
1.769294e+000,-1.594568e-005,1.450676e-005
1.770088e+000,-1.896696e-005,1.451018e-005
1.770882e+000,-1.795987e-005,1.453131e-005
1.771676e+000,-1.443504e-005,1.454639e-005
1.772471e+000,-1.359579e-005,1.454422e-005
1.773265e+000,-1.527428e-005,1.454711e-005
1.774059e+000,-1.762417e-005,1.455140e-005
1.774853e+000,-1.695277e-005,1.456710e-005
1.775647e+000,-1.762417e-005,1.458385e-005
1.776441e+000,-1.779202e-005,1.460630e-005
1.777235e+000,-1.963836e-005,1.462860e-005
1.778029e+000,-2.198825e-005,1.466193e-005
1.778824e+000,-1.762417e-005,1.470817e-005
1.779618e+000,-1.577783e-005,1.473664e-005
1.780412e+000,-1.242084e-005,1.475498e-005
1.781206e+000,-1.225299e-005,1.476276e-005
1.782000e+000,-1.023880e-005,1.476449e-005
1.782794e+000,-1.124590e-005,1.476295e-005
1.783588e+000,-1.225299e-005,1.476295e-005
1.784382e+000,-1.359579e-005,1.476927e-005
1.785176e+000,-1.158160e-005,1.477863e-005
1.785971e+000,-8.896010e-006,1.478178e-005
1.786765e+000,-9.567407e-006,1.477748e-005
1.787559e+000,-9.567407e-006,1.477452e-005
1.788353e+000,-1.057450e-005,1.476140e-005
1.789147e+000,-1.057450e-005,1.475150e-005
1.789941e+000,-1.359579e-005,1.474159e-005
1.790735e+000,-1.695277e-005,1.473957e-005
1.791529e+000,-1.762417e-005,1.475015e-005
1.792324e+000,-1.795987e-005,1.475959e-005
1.793118e+000,-1.628138e-005,1.476338e-005
1.793912e+000,-1.493858e-005,1.475847e-005
1.794706e+000,-1.493858e-005,1.474774e-005
1.795500e+000,-1.560998e-005,1.473435e-005
1.796294e+000,-1.628138e-005,1.472451e-005
1.797088e+000,-1.493858e-005,1.469083e-005
1.797882e+000,-1.695277e-005,1.465426e-005
1.798676e+000,-1.443504e-005,1.464912e-005
1.799471e+000,-1.091020e-005,1.463538e-005
1.800265e+000,-1.191730e-005,1.461948e-005
1.801059e+000,-1.628138e-005,1.460840e-005
1.801853e+000,-1.493858e-005,1.461511e-005
1.802647e+000,-1.695277e-005,1.462873e-005
1.803441e+000,-1.695277e-005,1.465322e-005
1.804235e+000,-1.225299e-005,1.467583e-005
1.805029e+000,-1.594568e-005,1.468219e-005
1.805824e+000,-1.560998e-005,1.469983e-005
1.806618e+000,-1.426719e-005,1.470365e-005
1.807412e+000,-1.728847e-005,1.470468e-005
1.808206e+000,-1.393149e-005,1.470341e-005
1.809000e+000,-1.158160e-005,1.466712e-005
1.809794e+000,-1.577783e-005,1.462914e-005
1.810588e+000,-1.527428e-005,1.461133e-005
1.811382e+000,-1.527428e-005,1.457739e-005
1.812176e+000,-1.728847e-005,1.455706e-005
1.812971e+000,-1.661708e-005,1.455040e-005
1.813765e+000,-1.426719e-005,1.454124e-005
1.814559e+000,-1.359579e-005,1.454124e-005
1.815353e+000,-1.359579e-005,1.453920e-005
1.816147e+000,-1.057450e-005,1.452920e-005
1.816941e+000,-1.326009e-005,1.451914e-005
1.817735e+000,-1.795987e-005,1.450435e-005
1.818529e+000,-1.829557e-005,1.451301e-005
1.819324e+000,-1.493858e-005,1.453139e-005
1.820118e+000,-1.661708e-005,1.453658e-005
1.820912e+000,-1.628138e-005,1.453534e-005
1.821706e+000,-1.225299e-005,1.453036e-005
1.822500e+000,-1.023880e-005,1.453376e-005
1.823294e+000,-1.426719e-005,1.452695e-005
1.824088e+000,-1.560998e-005,1.453922e-005
1.824882e+000,-1.158160e-005,1.455587e-005
1.825676e+000,-1.225299e-005,1.455032e-005
1.826471e+000,-1.292439e-005,1.454751e-005
1.827265e+000,-1.443504e-005,1.454891e-005
1.828059e+000,-1.779202e-005,1.455148e-005
1.828853e+000,-1.628138e-005,1.456384e-005
1.829647e+000,-1.829557e-005,1.455756e-005
1.830441e+000,-1.795987e-005,1.456694e-005
1.831235e+000,-1.728847e-005,1.457556e-005
1.832029e+000,-1.762417e-005,1.458801e-005
1.832824e+000,-1.661708e-005,1.460726e-005
1.833618e+000,-1.527428e-005,1.462273e-005
1.834412e+000,-1.460288e-005,1.461927e-005
1.835206e+000,-1.258869e-005,1.461242e-005
1.836000e+000,-1.191730e-005,1.460537e-005
1.836794e+000,-1.292439e-005,1.459969e-005
1.837588e+000,-1.040665e-005,1.460721e-005
1.838382e+000,-9.903105e-006,1.461481e-005
1.839176e+000,-8.560311e-006,1.462291e-005
1.839971e+000,-9.567407e-006,1.462755e-005
1.840765e+000,-1.493858e-005,1.463528e-005
1.841559e+000,-1.292439e-005,1.465388e-005
1.842353e+000,-1.191730e-005,1.466208e-005
1.843147e+000,-1.493858e-005,1.466030e-005
1.843941e+000,-1.493858e-005,1.466030e-005
1.844735e+000,-1.560998e-005,1.466345e-005
1.845529e+000,-1.577783e-005,1.467177e-005
1.846324e+000,-1.326009e-005,1.467402e-005
1.847118e+000,-1.158160e-005,1.466778e-005
1.847912e+000,-1.158160e-005,1.466025e-005
1.848706e+000,-1.225299e-005,1.465667e-005
1.849500e+000,-1.258869e-005,1.465034e-005
1.850294e+000,-1.376364e-005,1.464492e-005
1.851088e+000,-1.225299e-005,1.464125e-005
1.851882e+000,-1.493858e-005,1.464125e-005
1.852676e+000,-1.628138e-005,1.464829e-005
1.853471e+000,-1.426719e-005,1.465799e-005
1.854265e+000,-1.158160e-005,1.466379e-005
1.855059e+000,-1.225299e-005,1.465828e-005
1.855853e+000,-1.057450e-005,1.465916e-005
1.856647e+000,-9.063859e-006,1.465992e-005
1.857441e+000,-1.023880e-005,1.465890e-005
1.858235e+000,-1.258869e-005,1.466136e-005
1.859029e+000,-1.393149e-005,1.467238e-005
1.859824e+000,-1.493858e-005,1.468279e-005
1.860618e+000,-1.762417e-005,1.469202e-005
1.861412e+000,-1.930266e-005,1.470257e-005
1.862206e+000,-1.863127e-005,1.470396e-005
1.863000e+000,-2.098116e-005,1.470120e-005
1.863794e+000,-2.064546e-005,1.471523e-005
1.864588e+000,-1.997406e-005,1.472103e-005
1.865382e+000,-2.500954e-005,1.472247e-005
1.866176e+000,-2.702373e-005,1.473862e-005
1.866971e+000,-2.568093e-005,1.475351e-005
1.867765e+000,-2.433814e-005,1.476762e-005
1.868559e+000,-2.131685e-005,1.478700e-005
1.869353e+000,-2.098116e-005,1.478226e-005
1.870147e+000,-1.930266e-005,1.478226e-005
1.870941e+000,-1.695277e-005,1.479558e-005
1.871735e+000,-1.493858e-005,1.479048e-005
1.872529e+000,-1.359579e-005,1.478107e-005
1.873324e+000,-1.426719e-005,1.477242e-005
1.874118e+000,-1.158160e-005,1.475693e-005
1.874912e+000,-1.023880e-005,1.474039e-005
1.875706e+000,-1.309224e-005,1.473174e-005
1.876500e+000,-1.359579e-005,1.472929e-005
1.877294e+000,-1.460288e-005,1.472727e-005
1.878088e+000,-1.393149e-005,1.472779e-005
1.878882e+000,-1.258869e-005,1.472879e-005
1.879676e+000,-1.258869e-005,1.473142e-005
1.880471e+000,-1.158160e-005,1.472164e-005
1.881265e+000,-9.735256e-006,1.470628e-005
1.882059e+000,-1.091020e-005,1.469652e-005
1.882853e+000,-1.158160e-005,1.468939e-005
1.883647e+000,-9.567407e-006,1.469400e-005
1.884441e+000,-1.124590e-005,1.469535e-005
1.885235e+000,-1.510643e-005,1.469452e-005
1.886029e+000,-1.560998e-005,1.471000e-005
1.886824e+000,-1.527428e-005,1.472186e-005
1.887618e+000,-1.560998e-005,1.473421e-005
1.888412e+000,-1.628138e-005,1.475261e-005
1.889206e+000,-1.493858e-005,1.476797e-005
1.890000e+000,-1.225299e-005,1.477402e-005
1.890794e+000,-1.359579e-005,1.476929e-005
1.891588e+000,-1.393149e-005,1.477121e-005
1.892382e+000,-1.443504e-005,1.477220e-005
1.893176e+000,-1.158160e-005,1.477758e-005
1.893971e+000,-1.040665e-005,1.476798e-005
1.894765e+000,-1.359579e-005,1.473805e-005
1.895559e+000,-1.493858e-005,1.469395e-005
1.896353e+000,-1.174945e-005,1.466572e-005
1.897147e+000,-9.567407e-006,1.463881e-005
1.897941e+000,-1.158160e-005,1.462448e-005
1.898735e+000,-1.225299e-005,1.462613e-005
1.899529e+000,-1.191730e-005,1.463871e-005
1.900324e+000,-1.493858e-005,1.465326e-005
1.901118e+000,-1.426719e-005,1.467417e-005
1.901912e+000,-1.628138e-005,1.469349e-005
1.902706e+000,-1.577783e-005,1.471755e-005
1.903500e+000,-1.191730e-005,1.473238e-005
1.904294e+000,-1.124590e-005,1.473060e-005
1.905088e+000,-1.292439e-005,1.471905e-005
1.905882e+000,-1.426719e-005,1.471188e-005
1.906676e+000,-1.326009e-005,1.470402e-005
1.907471e+000,-1.426719e-005,1.469069e-005
1.908265e+000,-1.493858e-005,1.467306e-005
1.909059e+000,-1.225299e-005,1.466356e-005
1.909853e+000,-1.158160e-005,1.464350e-005
1.910647e+000,-1.107805e-005,1.463595e-005
1.911441e+000,-1.309224e-005,1.462610e-005
1.912235e+000,-1.225299e-005,1.460831e-005
1.913029e+000,-8.224612e-006,1.459081e-005
1.913824e+000,-1.057450e-005,1.456680e-005
1.914618e+000,-1.292439e-005,1.455004e-005
1.915412e+000,-1.393149e-005,1.455004e-005
1.916206e+000,-1.762417e-005,1.455300e-005
1.917000e+000,-1.829557e-005,1.455616e-005
1.917794e+000,-1.762417e-005,1.456378e-005
1.918588e+000,-1.359579e-005,1.456247e-005
1.919382e+000,-1.292439e-005,1.454999e-005
1.920176e+000,-1.292439e-005,1.453926e-005
1.920971e+000,-1.292439e-005,1.453731e-005
1.921765e+000,-1.493858e-005,1.453486e-005
1.922559e+000,-1.493858e-005,1.452195e-005
1.923353e+000,-1.292439e-005,1.451614e-005
1.924147e+000,-1.158160e-005,1.451419e-005
1.924941e+000,-1.191730e-005,1.450657e-005
1.925735e+000,-1.292439e-005,1.449766e-005
1.926529e+000,-1.091020e-005,1.449038e-005
1.927324e+000,-1.359579e-005,1.447432e-005
1.928118e+000,-1.493858e-005,1.447628e-005
1.928912e+000,-1.493858e-005,1.448340e-005
1.929706e+000,-1.560998e-005,1.447818e-005
1.930500e+000,-1.695277e-005,1.447337e-005
1.931294e+000,-1.896696e-005,1.447337e-005
1.932088e+000,-1.762417e-005,1.448378e-005
1.932882e+000,-1.997406e-005,1.450050e-005
1.933676e+000,-2.030976e-005,1.451754e-005
1.934471e+000,-1.560998e-005,1.454044e-005
1.935265e+000,-1.594568e-005,1.455409e-005
1.936059e+000,-1.560998e-005,1.456547e-005
1.936853e+000,-1.560998e-005,1.456069e-005
1.937647e+000,-1.560998e-005,1.456293e-005
1.938441e+000,-1.762417e-005,1.457131e-005
1.939235e+000,-1.460288e-005,1.458972e-005
1.940029e+000,-1.359579e-005,1.459078e-005
1.940824e+000,-8.224612e-006,1.459631e-005
1.941618e+000,-6.881819e-006,1.458547e-005
1.942412e+000,-8.392462e-006,1.457424e-005
1.943206e+000,-9.903105e-006,1.456174e-005
1.944000e+000,-1.091020e-005,1.455513e-005
1.944794e+000,-1.225299e-005,1.455348e-005
1.945588e+000,-1.258869e-005,1.455348e-005
1.946382e+000,-1.258869e-005,1.455779e-005
1.947176e+000,-1.292439e-005,1.455686e-005
1.947971e+000,-1.292439e-005,1.455686e-005
1.948765e+000,-9.567407e-006,1.455072e-005
1.949559e+000,-9.567407e-006,1.453171e-005
1.950353e+000,-1.292439e-005,1.450769e-005
1.951147e+000,-1.359579e-005,1.450153e-005
1.951941e+000,-1.359579e-005,1.450348e-005
1.952735e+000,-1.695277e-005,1.451150e-005
1.953529e+000,-1.896696e-005,1.452996e-005
1.954324e+000,-1.930266e-005,1.454911e-005
1.955118e+000,-1.695277e-005,1.456322e-005
1.955912e+000,-1.258869e-005,1.457822e-005
1.956706e+000,-1.091020e-005,1.458253e-005
1.957500e+000,-9.567407e-006,1.458088e-005
1.958294e+000,-9.903105e-006,1.457706e-005
1.959088e+000,-1.023880e-005,1.457396e-005
1.959882e+000,-1.258869e-005,1.456521e-005
1.960676e+000,-1.258869e-005,1.456233e-005
1.961471e+000,-1.594568e-005,1.454823e-005
1.962265e+000,-1.628138e-005,1.454583e-005
1.963059e+000,-1.628138e-005,1.454987e-005
1.963853e+000,-1.896696e-005,1.454224e-005
1.964647e+000,-1.913481e-005,1.454498e-005
1.965441e+000,-1.762417e-005,1.455106e-005
1.966235e+000,-1.829557e-005,1.456861e-005
1.967029e+000,-1.863127e-005,1.459652e-005
1.967824e+000,-1.728847e-005,1.460893e-005
1.968618e+000,-1.846342e-005,1.462136e-005
1.969412e+000,-1.863127e-005,1.463834e-005
1.970206e+000,-2.030976e-005,1.465182e-005
1.971000e+000,-2.165255e-005,1.467451e-005
1.971794e+000,-1.896696e-005,1.470530e-005
1.972588e+000,-1.762417e-005,1.471786e-005
1.973382e+000,-1.829557e-005,1.473046e-005
1.974176e+000,-1.795987e-005,1.474463e-005
1.974971e+000,-2.047761e-005,1.475850e-005
1.975765e+000,-1.963836e-005,1.478475e-005
1.976559e+000,-1.560998e-005,1.480435e-005
1.977353e+000,-1.292439e-005,1.480656e-005
1.978147e+000,-1.158160e-005,1.480656e-005
1.978941e+000,-8.560311e-006,1.480011e-005
1.979735e+000,-5.874723e-006,1.479002e-005
1.980529e+000,-2.853437e-006,1.477844e-005
1.981324e+000,-2.517739e-006,1.476313e-005
1.982118e+000,-1.678492e-007,1.474484e-005
1.982912e+000,-1.510643e-006,1.472862e-005
1.983706e+000,-5.539025e-006,1.470984e-005
1.984500e+000,-1.091020e-005,1.469864e-005
1.985294e+000,-1.527428e-005,1.467787e-005
1.986088e+000,-1.393149e-005,1.466948e-005
1.986882e+000,-1.326009e-005,1.466057e-005
1.987676e+000,-1.594568e-005,1.465320e-005
1.988471e+000,-1.963836e-005,1.464708e-005
1.989265e+000,-1.695277e-005,1.466018e-005
1.990059e+000,-1.628138e-005,1.467846e-005
1.990853e+000,-1.628138e-005,1.470206e-005
1.991647e+000,-1.846342e-005,1.472511e-005
1.992441e+000,-1.460288e-005,1.475776e-005
1.993235e+000,-1.225299e-005,1.477614e-005
1.994029e+000,-1.426719e-005,1.478102e-005
1.994824e+000,-1.930266e-005,1.478254e-005
1.995618e+000,-2.030976e-005,1.479293e-005
1.996412e+000,-1.695277e-005,1.480639e-005
1.997206e+000,-1.930266e-005,1.482114e-005
1.998000e+000,-1.628138e-005,1.484321e-005
1.998794e+000,-1.359579e-005,1.484717e-005
1.999588e+000,-1.628138e-005,1.483856e-005
2.000382e+000,-1.560998e-005,1.483856e-005
2.001176e+000,-1.023880e-005,1.482745e-005
2.001971e+000,-1.091020e-005,1.479726e-005
2.002765e+000,-1.091020e-005,1.477133e-005
2.003559e+000,-1.292439e-005,1.475317e-005
2.004353e+000,-1.443504e-005,1.474712e-005
2.005147e+000,-1.863127e-005,1.475340e-005
2.005941e+000,-1.527428e-005,1.477375e-005
2.006735e+000,-1.460288e-005,1.478089e-005
2.007529e+000,-1.393149e-005,1.478769e-005
2.008324e+000,-1.560998e-005,1.479873e-005
2.009118e+000,-1.661708e-005,1.481577e-005
2.009912e+000,-1.628138e-005,1.483224e-005
2.010706e+000,-1.997406e-005,1.484368e-005
2.011500e+000,-2.165255e-005,1.485565e-005
2.012294e+000,-2.165255e-005,1.487508e-005
2.013088e+000,-1.695277e-005,1.490916e-005
2.013882e+000,-1.426719e-005,1.491494e-005
2.014676e+000,-1.225299e-005,1.490350e-005
2.015471e+000,-1.091020e-005,1.489979e-005
2.016265e+000,-8.224612e-006,1.489603e-005
2.017059e+000,-4.867628e-006,1.489277e-005
2.017853e+000,-7.217518e-006,1.487553e-005
2.018647e+000,-1.124590e-005,1.485388e-005
2.019441e+000,-1.460288e-005,1.484017e-005
2.020235e+000,-1.460288e-005,1.482444e-005
2.021029e+000,-1.393149e-005,1.481270e-005
2.021824e+000,-1.644922e-005,1.481116e-005
2.022618e+000,-1.628138e-005,1.482038e-005
2.023412e+000,-1.560998e-005,1.482379e-005
2.024206e+000,-1.359579e-005,1.481660e-005
2.025000e+000,-1.225299e-005,1.480557e-005
2.025794e+000,-1.359579e-005,1.478830e-005
2.026588e+000,-1.191730e-005,1.477411e-005
2.027382e+000,-1.628138e-005,1.474783e-005
2.028176e+000,-1.762417e-005,1.472423e-005
2.028971e+000,-1.661708e-005,1.472423e-005
2.029765e+000,-1.628138e-005,1.472717e-005
2.030559e+000,-1.661708e-005,1.473915e-005
2.031353e+000,-1.628138e-005,1.475275e-005
2.032147e+000,-1.359579e-005,1.477004e-005
2.032941e+000,-1.191730e-005,1.477633e-005
2.033735e+000,-1.326009e-005,1.477546e-005
2.034529e+000,-1.527428e-005,1.477448e-005
2.035324e+000,-1.493858e-005,1.478517e-005
2.036118e+000,-1.359579e-005,1.480067e-005
2.036912e+000,-1.493858e-005,1.481071e-005
2.037706e+000,-1.225299e-005,1.482485e-005
2.038500e+000,-1.107805e-005,1.482897e-005
2.039294e+000,-6.881819e-006,1.483014e-005
2.040088e+000,-7.217518e-006,1.481537e-005
2.040882e+000,-1.191730e-005,1.479006e-005
2.041676e+000,-1.292439e-005,1.477189e-005
2.042471e+000,-1.359579e-005,1.475512e-005
2.043265e+000,-1.258869e-005,1.474646e-005
2.044059e+000,-1.158160e-005,1.473947e-005
2.044853e+000,-1.393149e-005,1.472985e-005
2.045647e+000,-1.309224e-005,1.472449e-005
2.046441e+000,-1.443504e-005,1.471436e-005
2.047235e+000,-1.426719e-005,1.471275e-005
2.048029e+000,-1.292439e-005,1.470368e-005
2.048824e+000,-1.527428e-005,1.469920e-005
2.049618e+000,-1.493858e-005,1.471157e-005
2.050412e+000,-1.762417e-005,1.472035e-005
2.051206e+000,-2.030976e-005,1.472528e-005
2.052000e+000,-1.795987e-005,1.474573e-005
2.052794e+000,-1.493858e-005,1.474953e-005
2.053588e+000,-1.661708e-005,1.474259e-005
2.054382e+000,-1.762417e-005,1.475620e-005
2.055176e+000,-1.628138e-005,1.476227e-005
2.055971e+000,-1.762417e-005,1.476458e-005
2.056765e+000,-1.896696e-005,1.477613e-005
2.057559e+000,-1.762417e-005,1.478268e-005
2.058353e+000,-1.594568e-005,1.479523e-005
2.059147e+000,-1.493858e-005,1.480815e-005
2.059941e+000,-1.426719e-005,1.480538e-005
2.060735e+000,-1.292439e-005,1.480218e-005
2.061529e+000,-1.326009e-005,1.479505e-005
2.062324e+000,-1.023880e-005,1.478180e-005
2.063118e+000,-1.292439e-005,1.476334e-005
2.063912e+000,-1.426719e-005,1.475940e-005
2.064706e+000,-1.359579e-005,1.476141e-005
2.065500e+000,-1.493858e-005,1.476141e-005
2.066294e+000,-1.762417e-005,1.477342e-005
2.067088e+000,-1.661708e-005,1.478794e-005
2.067882e+000,-1.628138e-005,1.478294e-005
2.068676e+000,-1.695277e-005,1.477544e-005
2.069471e+000,-1.493858e-005,1.478236e-005
2.070265e+000,-8.224612e-006,1.477665e-005
2.071059e+000,-8.224612e-006,1.475536e-005
2.071853e+000,-9.903105e-006,1.474645e-005
2.072647e+000,-1.359579e-005,1.474572e-005
2.073441e+000,-1.594568e-005,1.474370e-005
2.074235e+000,-1.577783e-005,1.474485e-005
2.075029e+000,-1.359579e-005,1.475724e-005
2.075824e+000,-1.661708e-005,1.476099e-005
2.076618e+000,-1.560998e-005,1.477275e-005
2.077412e+000,-1.712062e-005,1.477655e-005
2.078206e+000,-1.829557e-005,1.477403e-005
2.079000e+000,-1.896696e-005,1.478153e-005
2.079794e+000,-2.064546e-005,1.478423e-005
2.080588e+000,-1.795987e-005,1.479539e-005
2.081382e+000,-1.628138e-005,1.479794e-005
2.082176e+000,-1.829557e-005,1.479304e-005
2.082971e+000,-1.762417e-005,1.479934e-005
2.083765e+000,-1.695277e-005,1.480766e-005
2.084559e+000,-1.628138e-005,1.481563e-005
2.085353e+000,-1.393149e-005,1.482708e-005
2.086147e+000,-1.628138e-005,1.483267e-005
2.086941e+000,-1.225299e-005,1.484320e-005
2.087735e+000,-7.553216e-006,1.484768e-005
2.088529e+000,-7.553216e-006,1.484328e-005
2.089324e+000,-1.158160e-005,1.484154e-005
2.090118e+000,-1.426719e-005,1.484611e-005
2.090912e+000,-1.426719e-005,1.484401e-005
2.091706e+000,-1.628138e-005,1.484792e-005
2.092500e+000,-1.493858e-005,1.486112e-005
2.093294e+000,-9.903105e-006,1.486112e-005
2.094088e+000,-4.364080e-006,1.484771e-005
2.094882e+000,-2.853437e-006,1.482360e-005
2.095676e+000,-3.524834e-006,1.479771e-005
2.096471e+000,-8.392462e-006,1.478011e-005
2.097265e+000,-9.231709e-006,1.477325e-005
2.098059e+000,-8.728161e-006,1.476798e-005
2.098853e+000,-1.258869e-005,1.476000e-005
2.099647e+000,-1.426719e-005,1.476000e-005
2.100441e+000,-1.695277e-005,1.476152e-005
2.101235e+000,-2.047761e-005,1.477632e-005
2.102029e+000,-2.030976e-005,1.479745e-005
2.102824e+000,-2.366674e-005,1.481330e-005
2.103618e+000,-2.131685e-005,1.485158e-005
2.104412e+000,-2.500954e-005,1.488588e-005
2.105206e+000,-2.568093e-005,1.493664e-005
2.106000e+000,-2.064546e-005,1.499492e-005
2.106794e+000,-1.728847e-005,1.503141e-005
2.107588e+000,-1.560998e-005,1.505195e-005
2.108382e+000,-1.594568e-005,1.506096e-005
2.109176e+000,-1.577783e-005,1.506732e-005
2.109971e+000,-1.426719e-005,1.507005e-005
2.110765e+000,-1.023880e-005,1.505873e-005
2.111559e+000,-5.203327e-006,1.503039e-005
2.112353e+000,-4.196231e-006,1.499645e-005
2.113147e+000,-4.531929e-006,1.495151e-005
2.113941e+000,-5.035477e-007,1.490824e-005
2.114735e+000,2.853437e-006,1.486559e-005
2.115529e+000,-2.853437e-006,1.479932e-005
2.116324e+000,-8.224612e-006,1.472141e-005
2.117118e+000,-1.057450e-005,1.465725e-005
2.117912e+000,-1.124590e-005,1.460495e-005
2.118706e+000,-7.217518e-006,1.456915e-005
2.119500e+000,-4.531929e-006,1.452667e-005
2.120294e+000,-4.867628e-006,1.448803e-005
2.121088e+000,-6.210422e-006,1.445902e-005
2.121882e+000,-1.158160e-005,1.443867e-005
2.122676e+000,-1.225299e-005,1.443308e-005
2.123471e+000,-1.695277e-005,1.442719e-005
2.124265e+000,-1.829557e-005,1.444409e-005
2.125059e+000,-2.215610e-005,1.446941e-005
2.125853e+000,-2.400244e-005,1.450453e-005
2.126647e+000,-2.433814e-005,1.454742e-005
2.127441e+000,-2.299535e-005,1.458886e-005
2.128235e+000,-2.232395e-005,1.462535e-005
2.129029e+000,-2.366674e-005,1.466231e-005
2.129824e+000,-2.517739e-005,1.470586e-005
2.130618e+000,-2.114900e-005,1.475988e-005
2.131412e+000,-2.400244e-005,1.479786e-005
2.132206e+000,-2.467384e-005,1.484696e-005
2.133000e+000,-2.299535e-005,1.489778e-005
2.133794e+000,-2.165255e-005,1.494445e-005
2.134588e+000,-1.963836e-005,1.498088e-005
2.135382e+000,-1.846342e-005,1.499761e-005
2.136176e+000,-1.963836e-005,1.500793e-005
2.136971e+000,-1.896696e-005,1.502408e-005
2.137765e+000,-1.829557e-005,1.503638e-005
2.138559e+000,-1.493858e-005,1.504376e-005
2.139353e+000,-1.527428e-005,1.504376e-005
2.140147e+000,-1.426719e-005,1.505256e-005
2.140941e+000,-1.426719e-005,1.505454e-005
2.141735e+000,-1.292439e-005,1.505554e-005
2.142529e+000,-1.091020e-005,1.505117e-005
2.143324e+000,-1.158160e-005,1.504957e-005
2.144118e+000,-9.903105e-006,1.505230e-005
2.144912e+000,-7.553216e-006,1.504312e-005
2.145706e+000,-6.881819e-006,1.502552e-005
2.146500e+000,-8.224612e-006,1.501591e-005
2.147294e+000,-1.023880e-005,1.501338e-005
2.148088e+000,-8.560311e-006,1.501027e-005
2.148882e+000,-1.023880e-005,1.500211e-005
2.149676e+000,-1.292439e-005,1.499817e-005
2.150471e+000,-1.158160e-005,1.499221e-005
2.151265e+000,-9.903105e-006,1.498483e-005
2.152059e+000,-1.493858e-005,1.496707e-005
2.152853e+000,-1.795987e-005,1.496433e-005
2.153647e+000,-1.896696e-005,1.498353e-005
2.154441e+000,-1.661708e-005,1.500830e-005
2.155235e+000,-1.560998e-005,1.501987e-005
2.156029e+000,-1.628138e-005,1.502412e-005
2.156824e+000,-1.527428e-005,1.503358e-005
2.157618e+000,-1.359579e-005,1.503673e-005
2.158412e+000,-1.292439e-005,1.503267e-005
2.159206e+000,-1.107805e-005,1.503446e-005
2.160000e+000,-1.258869e-005,1.503325e-005
2.160794e+000,-1.460288e-005,1.503704e-005
2.161588e+000,-1.359579e-005,1.504147e-005
2.162382e+000,-1.359579e-005,1.504514e-005
2.163176e+000,-9.567407e-006,1.505754e-005
2.163971e+000,-9.903105e-006,1.505540e-005
2.164765e+000,-9.567407e-006,1.504810e-005
2.165559e+000,-7.553216e-006,1.503725e-005
2.166353e+000,-1.158160e-005,1.501037e-005
2.167147e+000,-1.577783e-005,1.498908e-005
2.167941e+000,-1.460288e-005,1.498252e-005
2.168735e+000,-1.493858e-005,1.498554e-005
2.169529e+000,-1.560998e-005,1.499150e-005
2.170324e+000,-1.628138e-005,1.499964e-005
2.171118e+000,-1.795987e-005,1.501005e-005
2.171912e+000,-2.165255e-005,1.502059e-005
2.172706e+000,-1.997406e-005,1.504661e-005
2.173500e+000,-1.795987e-005,1.507113e-005
2.174294e+000,-1.577783e-005,1.509103e-005
2.175088e+000,-1.560998e-005,1.510231e-005
2.175882e+000,-1.695277e-005,1.511038e-005
2.176676e+000,-1.359579e-005,1.512811e-005
2.177471e+000,-1.560998e-005,1.512811e-005
2.178265e+000,-1.510643e-005,1.513027e-005
2.179059e+000,-1.493858e-005,1.513080e-005
2.179853e+000,-1.225299e-005,1.512865e-005
2.180647e+000,-9.567407e-006,1.511419e-005
2.181441e+000,-1.359579e-005,1.508591e-005
2.182235e+000,-1.258869e-005,1.507263e-005
2.183029e+000,-1.510643e-005,1.504720e-005
2.183824e+000,-1.628138e-005,1.502768e-005
2.184618e+000,-1.560998e-005,1.502995e-005
2.185412e+000,-1.242084e-005,1.502883e-005
2.186206e+000,-1.443504e-005,1.501936e-005
2.187000e+000,-1.460288e-005,1.501561e-005
2.187794e+000,-1.493858e-005,1.501239e-005
2.188588e+000,-1.359579e-005,1.500311e-005
2.189382e+000,-1.359579e-005,1.500009e-005
2.190176e+000,-1.158160e-005,1.500009e-005
2.190971e+000,-1.393149e-005,1.500715e-005
2.191765e+000,-1.577783e-005,1.502271e-005
2.192559e+000,-1.762417e-005,1.504162e-005
2.193353e+000,-1.560998e-005,1.506410e-005
2.194147e+000,-1.829557e-005,1.507727e-005
2.194941e+000,-2.165255e-005,1.509675e-005
2.195735e+000,-1.997406e-005,1.512945e-005
2.196529e+000,-1.980621e-005,1.515474e-005
2.197324e+000,-1.762417e-005,1.517839e-005
2.198118e+000,-1.560998e-005,1.519345e-005
2.198912e+000,-1.762417e-005,1.520938e-005
2.199706e+000,-1.661708e-005,1.523230e-005
2.200500e+000,-1.393149e-005,1.524370e-005
2.201294e+000,-1.292439e-005,1.524467e-005
2.202088e+000,-1.225299e-005,1.524281e-005
2.202882e+000,-1.158160e-005,1.522846e-005
2.203676e+000,-1.292439e-005,1.520485e-005
2.204471e+000,-2.047761e-005,1.518331e-005
2.205265e+000,-3.440909e-005,1.519714e-005
2.206059e+000,-3.776608e-005,1.530422e-005
2.206853e+000,-3.944457e-005,1.543963e-005
2.207647e+000,-3.776608e-005,1.558993e-005
2.208441e+000,-4.313725e-005,1.572500e-005
2.209235e+000,-4.045167e-005,1.590183e-005
2.210029e+000,-3.121996e-005,1.604913e-005
2.210824e+000,-2.265965e-005,1.612991e-005
2.211618e+000,-2.232395e-005,1.615548e-005
2.212412e+000,-2.366674e-005,1.617845e-005
2.213206e+000,-2.030976e-005,1.620747e-005
2.214000e+000,-1.292439e-005,1.621265e-005
2.214794e+000,-4.867628e-006,1.619308e-005
2.215588e+000,1.174945e-006,1.616484e-005
