X [s],R DELTOID ANTERIOR: EMG 2 [V],R DELTOID ANTERIOR: EMG 2->filter (FilterSlidingRMS51) [V]
0.000000e+000,0.000000e+000,0.000000e+000
5.192308e-004,0.000000e+000,0.000000e+000
1.038462e-003,0.000000e+000,0.000000e+000
1.557692e-003,0.000000e+000,0.000000e+000
2.076923e-003,0.000000e+000,0.000000e+000
2.596154e-003,0.000000e+000,0.000000e+000
3.115385e-003,0.000000e+000,0.000000e+000
3.634615e-003,0.000000e+000,0.000000e+000
4.153846e-003,0.000000e+000,0.000000e+000
4.673077e-003,0.000000e+000,0.000000e+000
5.192308e-003,0.000000e+000,0.000000e+000
5.711538e-003,0.000000e+000,0.000000e+000
6.230769e-003,0.000000e+000,0.000000e+000
6.750000e-003,0.000000e+000,0.000000e+000
7.269231e-003,0.000000e+000,0.000000e+000
7.788462e-003,0.000000e+000,0.000000e+000
8.307692e-003,0.000000e+000,0.000000e+000
8.826923e-003,0.000000e+000,0.000000e+000
9.346154e-003,0.000000e+000,0.000000e+000
9.865385e-003,0.000000e+000,0.000000e+000
1.038462e-002,0.000000e+000,0.000000e+000
1.090385e-002,0.000000e+000,0.000000e+000
1.142308e-002,0.000000e+000,0.000000e+000
1.194231e-002,0.000000e+000,0.000000e+000
1.246154e-002,0.000000e+000,0.000000e+000
1.298077e-002,0.000000e+000,0.000000e+000
1.350000e-002,0.000000e+000,0.000000e+000
1.401923e-002,0.000000e+000,0.000000e+000
1.453846e-002,0.000000e+000,0.000000e+000
1.505769e-002,0.000000e+000,0.000000e+000
1.557692e-002,0.000000e+000,0.000000e+000
1.609615e-002,0.000000e+000,0.000000e+000
1.661538e-002,0.000000e+000,0.000000e+000
1.713462e-002,0.000000e+000,0.000000e+000
1.765385e-002,0.000000e+000,0.000000e+000
1.817308e-002,0.000000e+000,0.000000e+000
1.869231e-002,0.000000e+000,0.000000e+000
1.921154e-002,0.000000e+000,0.000000e+000
1.973077e-002,0.000000e+000,0.000000e+000
2.025000e-002,0.000000e+000,0.000000e+000
2.076923e-002,0.000000e+000,0.000000e+000
2.128846e-002,0.000000e+000,0.000000e+000
2.180769e-002,0.000000e+000,0.000000e+000
2.232692e-002,0.000000e+000,0.000000e+000
2.284615e-002,0.000000e+000,0.000000e+000
2.336538e-002,0.000000e+000,0.000000e+000
2.388462e-002,0.000000e+000,0.000000e+000
2.440385e-002,0.000000e+000,0.000000e+000
2.492308e-002,0.000000e+000,0.000000e+000
2.544231e-002,0.000000e+000,0.000000e+000
2.596154e-002,0.000000e+000,0.000000e+000
2.648077e-002,0.000000e+000,0.000000e+000
2.700000e-002,0.000000e+000,0.000000e+000
2.751923e-002,0.000000e+000,0.000000e+000
2.803846e-002,0.000000e+000,0.000000e+000
2.855769e-002,0.000000e+000,0.000000e+000
2.907692e-002,0.000000e+000,0.000000e+000
2.959615e-002,0.000000e+000,0.000000e+000
3.011538e-002,0.000000e+000,0.000000e+000
3.063462e-002,0.000000e+000,0.000000e+000
3.115385e-002,0.000000e+000,0.000000e+000
3.167308e-002,0.000000e+000,0.000000e+000
3.219231e-002,0.000000e+000,0.000000e+000
3.271154e-002,0.000000e+000,0.000000e+000
3.323077e-002,0.000000e+000,0.000000e+000
3.375000e-002,0.000000e+000,0.000000e+000
3.426923e-002,0.000000e+000,0.000000e+000
3.478846e-002,0.000000e+000,0.000000e+000
3.530769e-002,0.000000e+000,0.000000e+000
3.582692e-002,0.000000e+000,0.000000e+000
3.634615e-002,0.000000e+000,0.000000e+000
3.686538e-002,0.000000e+000,0.000000e+000
3.738462e-002,0.000000e+000,0.000000e+000
3.790385e-002,0.000000e+000,0.000000e+000
3.842308e-002,0.000000e+000,0.000000e+000
3.894231e-002,0.000000e+000,0.000000e+000
3.946154e-002,0.000000e+000,0.000000e+000
3.998077e-002,0.000000e+000,0.000000e+000
4.050000e-002,0.000000e+000,0.000000e+000
4.101923e-002,0.000000e+000,0.000000e+000
4.153846e-002,0.000000e+000,0.000000e+000
4.205769e-002,0.000000e+000,0.000000e+000
4.257692e-002,0.000000e+000,0.000000e+000
4.309615e-002,0.000000e+000,0.000000e+000
4.361538e-002,0.000000e+000,0.000000e+000
4.413462e-002,0.000000e+000,0.000000e+000
4.465385e-002,0.000000e+000,0.000000e+000
4.517308e-002,0.000000e+000,0.000000e+000
4.569231e-002,0.000000e+000,0.000000e+000
4.621154e-002,0.000000e+000,0.000000e+000
4.673077e-002,0.000000e+000,0.000000e+000
4.725000e-002,0.000000e+000,0.000000e+000
4.776923e-002,0.000000e+000,0.000000e+000
4.828846e-002,0.000000e+000,0.000000e+000
4.880769e-002,0.000000e+000,0.000000e+000
4.932692e-002,0.000000e+000,0.000000e+000
4.984615e-002,0.000000e+000,0.000000e+000
5.036538e-002,0.000000e+000,0.000000e+000
5.088462e-002,0.000000e+000,0.000000e+000
5.140385e-002,0.000000e+000,0.000000e+000
5.192308e-002,0.000000e+000,0.000000e+000
5.244231e-002,0.000000e+000,0.000000e+000
5.296154e-002,0.000000e+000,0.000000e+000
5.348077e-002,0.000000e+000,0.000000e+000
5.400000e-002,0.000000e+000,0.000000e+000
5.451923e-002,0.000000e+000,0.000000e+000
5.503846e-002,0.000000e+000,0.000000e+000
5.555769e-002,0.000000e+000,0.000000e+000
5.607692e-002,0.000000e+000,0.000000e+000
5.659615e-002,0.000000e+000,0.000000e+000
5.711538e-002,0.000000e+000,0.000000e+000
5.763462e-002,0.000000e+000,0.000000e+000
5.815385e-002,0.000000e+000,0.000000e+000
5.867308e-002,0.000000e+000,0.000000e+000
5.919231e-002,0.000000e+000,0.000000e+000
5.971154e-002,0.000000e+000,0.000000e+000
6.023077e-002,0.000000e+000,0.000000e+000
6.075000e-002,0.000000e+000,0.000000e+000
6.126923e-002,0.000000e+000,0.000000e+000
6.178846e-002,0.000000e+000,0.000000e+000
6.230769e-002,0.000000e+000,0.000000e+000
6.282692e-002,0.000000e+000,0.000000e+000
6.334615e-002,0.000000e+000,0.000000e+000
6.386538e-002,0.000000e+000,0.000000e+000
6.438462e-002,0.000000e+000,0.000000e+000
6.490385e-002,0.000000e+000,0.000000e+000
6.542308e-002,0.000000e+000,0.000000e+000
6.594231e-002,0.000000e+000,0.000000e+000
6.646154e-002,0.000000e+000,0.000000e+000
6.698077e-002,0.000000e+000,0.000000e+000
6.750000e-002,0.000000e+000,0.000000e+000
6.801923e-002,0.000000e+000,0.000000e+000
6.853846e-002,0.000000e+000,0.000000e+000
6.905769e-002,0.000000e+000,0.000000e+000
6.957692e-002,0.000000e+000,0.000000e+000
7.009615e-002,0.000000e+000,0.000000e+000
7.061538e-002,0.000000e+000,0.000000e+000
7.113462e-002,0.000000e+000,0.000000e+000
7.165385e-002,0.000000e+000,0.000000e+000
7.217308e-002,0.000000e+000,0.000000e+000
7.269231e-002,0.000000e+000,0.000000e+000
7.321154e-002,0.000000e+000,0.000000e+000
7.373077e-002,0.000000e+000,0.000000e+000
7.425000e-002,0.000000e+000,0.000000e+000
7.476923e-002,0.000000e+000,0.000000e+000
7.528846e-002,0.000000e+000,0.000000e+000
7.580769e-002,0.000000e+000,0.000000e+000
7.632692e-002,0.000000e+000,0.000000e+000
7.684615e-002,0.000000e+000,0.000000e+000
7.736538e-002,0.000000e+000,0.000000e+000
7.788462e-002,0.000000e+000,0.000000e+000
7.840385e-002,0.000000e+000,0.000000e+000
7.892308e-002,0.000000e+000,0.000000e+000
7.944231e-002,0.000000e+000,0.000000e+000
7.996154e-002,0.000000e+000,0.000000e+000
8.048077e-002,0.000000e+000,0.000000e+000
8.100000e-002,0.000000e+000,0.000000e+000
8.151923e-002,0.000000e+000,0.000000e+000
8.203846e-002,0.000000e+000,0.000000e+000
8.255769e-002,0.000000e+000,0.000000e+000
8.307692e-002,0.000000e+000,0.000000e+000
8.359615e-002,0.000000e+000,0.000000e+000
8.411538e-002,0.000000e+000,0.000000e+000
8.463462e-002,0.000000e+000,0.000000e+000
8.515385e-002,0.000000e+000,0.000000e+000
8.567308e-002,0.000000e+000,0.000000e+000
8.619231e-002,0.000000e+000,0.000000e+000
8.671154e-002,0.000000e+000,0.000000e+000
8.723077e-002,0.000000e+000,0.000000e+000
8.775000e-002,0.000000e+000,0.000000e+000
8.826923e-002,0.000000e+000,0.000000e+000
8.878846e-002,0.000000e+000,0.000000e+000
8.930769e-002,0.000000e+000,0.000000e+000
8.982692e-002,0.000000e+000,0.000000e+000
9.034615e-002,0.000000e+000,0.000000e+000
9.086538e-002,0.000000e+000,0.000000e+000
9.138462e-002,0.000000e+000,0.000000e+000
9.190385e-002,0.000000e+000,0.000000e+000
9.242308e-002,0.000000e+000,0.000000e+000
9.294231e-002,0.000000e+000,0.000000e+000
9.346154e-002,0.000000e+000,0.000000e+000
9.398077e-002,0.000000e+000,0.000000e+000
9.450000e-002,-2.030976e-005,0.000000e+000
9.501923e-002,-1.963836e-005,0.000000e+000
9.553846e-002,-1.829557e-005,0.000000e+000
9.605769e-002,-1.560998e-005,0.000000e+000
9.657692e-002,-1.326009e-005,0.000000e+000
9.709615e-002,-1.225299e-005,0.000000e+000
9.761538e-002,-1.258869e-005,0.000000e+000
9.813462e-002,-1.493858e-005,0.000000e+000
9.865385e-002,-1.527428e-005,0.000000e+000
9.917308e-002,-1.560998e-005,0.000000e+000
9.969231e-002,-1.460288e-005,0.000000e+000
1.002115e-001,-1.493858e-005,0.000000e+000
1.007308e-001,-1.560998e-005,0.000000e+000
1.012500e-001,-1.460288e-005,0.000000e+000
1.017692e-001,-1.493858e-005,0.000000e+000
1.022885e-001,-1.661708e-005,0.000000e+000
1.028077e-001,-1.762417e-005,0.000000e+000
1.033269e-001,-1.795987e-005,0.000000e+000
1.038462e-001,-1.779202e-005,0.000000e+000
1.043654e-001,-1.695277e-005,0.000000e+000
1.048846e-001,-1.560998e-005,0.000000e+000
1.054038e-001,-1.560998e-005,0.000000e+000
1.059231e-001,-1.628138e-005,0.000000e+000
1.064423e-001,-1.628138e-005,0.000000e+000
1.069615e-001,-1.628138e-005,0.000000e+000
1.074808e-001,-1.628138e-005,0.000000e+000
1.080000e-001,-1.762417e-005,0.000000e+000
1.085192e-001,-1.829557e-005,0.000000e+000
1.090385e-001,-1.863127e-005,0.000000e+000
1.095577e-001,-1.896696e-005,0.000000e+000
1.100769e-001,-1.829557e-005,0.000000e+000
1.105962e-001,-1.779202e-005,0.000000e+000
1.111154e-001,-1.762417e-005,0.000000e+000
1.116346e-001,-1.661708e-005,0.000000e+000
1.121538e-001,-1.628138e-005,0.000000e+000
1.126731e-001,-1.661708e-005,0.000000e+000
1.131923e-001,-1.560998e-005,0.000000e+000
1.137115e-001,-1.493858e-005,0.000000e+000
1.142308e-001,-1.628138e-005,0.000000e+000
1.147500e-001,-1.628138e-005,0.000000e+000
1.152692e-001,-1.577783e-005,0.000000e+000
1.157885e-001,-1.661708e-005,0.000000e+000
1.163077e-001,-1.779202e-005,0.000000e+000
1.168269e-001,-1.947051e-005,0.000000e+000
1.173462e-001,-2.098116e-005,0.000000e+000
1.178654e-001,-2.182040e-005,0.000000e+000
1.183846e-001,-2.232395e-005,0.000000e+000
1.189038e-001,-2.433814e-005,0.000000e+000
1.194231e-001,-2.433814e-005,0.000000e+000
1.199423e-001,-2.299535e-005,0.000000e+000
1.204615e-001,-2.232395e-005,0.000000e+000
1.209808e-001,-2.165255e-005,0.000000e+000
1.215000e-001,-2.047761e-005,0.000000e+000
1.220192e-001,-2.064546e-005,0.000000e+000
1.225385e-001,-2.098116e-005,0.000000e+000
1.230577e-001,-2.265965e-005,0.000000e+000
1.235769e-001,-2.366674e-005,0.000000e+000
1.240962e-001,-2.232395e-005,0.000000e+000
1.246154e-001,-2.047761e-005,0.000000e+000
1.251346e-001,-2.165255e-005,0.000000e+000
1.256538e-001,-2.366674e-005,0.000000e+000
1.261731e-001,-2.534523e-005,0.000000e+000
1.266923e-001,-2.568093e-005,0.000000e+000
1.272115e-001,-2.500954e-005,0.000000e+000
1.277308e-001,-2.467384e-005,0.000000e+000
1.282500e-001,-2.500954e-005,0.000000e+000
1.287692e-001,-2.299535e-005,0.000000e+000
1.292885e-001,-2.198825e-005,0.000000e+000
1.298077e-001,-2.198825e-005,0.000000e+000
1.303269e-001,-2.232395e-005,0.000000e+000
1.308462e-001,-2.232395e-005,0.000000e+000
1.313654e-001,-2.232395e-005,0.000000e+000
1.318846e-001,-2.299535e-005,0.000000e+000
1.324038e-001,-2.601663e-005,0.000000e+000
1.329231e-001,-2.534523e-005,0.000000e+000
1.334423e-001,-2.265965e-005,0.000000e+000
1.339615e-001,-2.165255e-005,0.000000e+000
1.344808e-001,-2.165255e-005,0.000000e+000
1.350000e-001,-2.064546e-005,0.000000e+000
1.355192e-001,-1.980621e-005,0.000000e+000
1.360385e-001,-1.963836e-005,0.000000e+000
1.365577e-001,-1.829557e-005,0.000000e+000
1.370769e-001,-1.963836e-005,0.000000e+000
1.375962e-001,-2.165255e-005,0.000000e+000
1.381154e-001,-2.232395e-005,0.000000e+000
1.386346e-001,-2.265965e-005,0.000000e+000
1.391538e-001,-2.366674e-005,0.000000e+000
1.396731e-001,-2.433814e-005,0.000000e+000
1.401923e-001,-2.366674e-005,0.000000e+000
1.407115e-001,-2.299535e-005,0.000000e+000
1.412308e-001,-2.366674e-005,0.000000e+000
1.417500e-001,-2.500954e-005,0.000000e+000
1.422692e-001,-2.433814e-005,0.000000e+000
1.427885e-001,-2.517739e-005,0.000000e+000
1.433077e-001,-2.433814e-005,0.000000e+000
1.438269e-001,-2.165255e-005,0.000000e+000
1.443462e-001,-2.030976e-005,0.000000e+000
1.448654e-001,-1.930266e-005,0.000000e+000
1.453846e-001,-2.030976e-005,0.000000e+000
1.459038e-001,-2.366674e-005,0.000000e+000
1.464231e-001,-2.601663e-005,0.000000e+000
1.469423e-001,-2.568093e-005,0.000000e+000
1.474615e-001,-2.433814e-005,0.000000e+000
1.479808e-001,-2.500954e-005,0.000000e+000
1.485000e-001,-2.635233e-005,0.000000e+000
1.490192e-001,-2.568093e-005,0.000000e+000
1.495385e-001,-2.500954e-005,0.000000e+000
1.500577e-001,-2.500954e-005,0.000000e+000
1.505769e-001,-2.601663e-005,0.000000e+000
1.510962e-001,-2.635233e-005,0.000000e+000
1.516154e-001,-2.433814e-005,0.000000e+000
1.521346e-001,-2.316319e-005,0.000000e+000
1.526538e-001,-2.098116e-005,0.000000e+000
1.531731e-001,-1.913481e-005,0.000000e+000
1.536923e-001,-1.628138e-005,0.000000e+000
1.542115e-001,-1.628138e-005,0.000000e+000
1.547308e-001,-1.762417e-005,0.000000e+000
1.552500e-001,-1.695277e-005,0.000000e+000
1.557692e-001,-1.644922e-005,0.000000e+000
1.562885e-001,-1.628138e-005,0.000000e+000
1.568077e-001,-1.779202e-005,0.000000e+000
1.573269e-001,-1.829557e-005,0.000000e+000
1.578462e-001,-1.661708e-005,0.000000e+000
1.583654e-001,-1.896696e-005,0.000000e+000
1.588846e-001,-2.299535e-005,0.000000e+000
1.594038e-001,-2.500954e-005,0.000000e+000
1.599231e-001,-2.400244e-005,0.000000e+000
1.604423e-001,-2.383459e-005,0.000000e+000
1.609615e-001,-2.064546e-005,0.000000e+000
1.614808e-001,-1.242084e-005,0.000000e+000
1.620000e-001,-5.874723e-006,0.000000e+000
1.625192e-001,-5.203327e-006,0.000000e+000
1.630385e-001,-6.546120e-006,0.000000e+000
1.635577e-001,-6.210422e-006,0.000000e+000
1.640769e-001,-3.524834e-006,0.000000e+000
1.645962e-001,-4.531929e-006,0.000000e+000
1.651154e-001,-6.378271e-006,0.000000e+000
1.656346e-001,-6.881819e-006,0.000000e+000
1.661538e-001,-7.217518e-006,0.000000e+000
1.666731e-001,-1.258869e-005,0.000000e+000
1.671923e-001,-1.695277e-005,0.000000e+000
1.677115e-001,-1.896696e-005,0.000000e+000
1.682308e-001,-2.047761e-005,0.000000e+000
1.687500e-001,-2.400244e-005,0.000000e+000
1.692692e-001,-2.702373e-005,0.000000e+000
1.697885e-001,-2.769513e-005,0.000000e+000
1.703077e-001,-2.836652e-005,0.000000e+000
1.708269e-001,-2.769513e-005,0.000000e+000
1.713462e-001,-2.903792e-005,0.000000e+000
1.718654e-001,-3.105211e-005,0.000000e+000
1.723846e-001,-3.105211e-005,0.000000e+000
1.729038e-001,-3.239490e-005,0.000000e+000
1.734231e-001,-3.440909e-005,0.000000e+000
1.739423e-001,-3.508049e-005,0.000000e+000
1.744615e-001,-3.508049e-005,0.000000e+000
1.749808e-001,-3.373770e-005,0.000000e+000
1.755000e-001,-3.138781e-005,0.000000e+000
1.760192e-001,-3.172351e-005,0.000000e+000
1.765385e-001,-3.239490e-005,0.000000e+000
1.770577e-001,-3.340200e-005,0.000000e+000
1.775769e-001,-3.541619e-005,0.000000e+000
1.780962e-001,-3.608759e-005,0.000000e+000
1.786154e-001,-3.323415e-005,0.000000e+000
1.791346e-001,-3.105211e-005,0.000000e+000
1.796538e-001,-3.038071e-005,0.000000e+000
1.801731e-001,-2.970932e-005,0.000000e+000
1.806923e-001,-2.735943e-005,0.000000e+000
1.812115e-001,-2.668803e-005,0.000000e+000
1.817308e-001,-2.769513e-005,0.000000e+000
1.822500e-001,-2.702373e-005,0.000000e+000
1.827692e-001,-2.568093e-005,0.000000e+000
1.832885e-001,-2.719158e-005,0.000000e+000
1.838077e-001,-2.735943e-005,0.000000e+000
1.843269e-001,-2.601663e-005,0.000000e+000
1.848462e-001,-2.433814e-005,0.000000e+000
1.853654e-001,-2.500954e-005,0.000000e+000
1.858846e-001,-2.467384e-005,0.000000e+000
1.864038e-001,-2.265965e-005,0.000000e+000
1.869231e-001,-2.333104e-005,0.000000e+000
1.874423e-001,-2.601663e-005,0.000000e+000
1.879615e-001,-2.568093e-005,0.000000e+000
1.884808e-001,-2.500954e-005,0.000000e+000
1.890000e-001,-2.366674e-005,0.000000e+000
1.895192e-001,-2.265965e-005,0.000000e+000
1.900385e-001,-2.316319e-005,0.000000e+000
1.905577e-001,-2.383459e-005,0.000000e+000
1.910769e-001,-2.366674e-005,0.000000e+000
1.915962e-001,-2.299535e-005,0.000000e+000
1.921154e-001,-2.165255e-005,0.000000e+000
1.926346e-001,-2.030976e-005,0.000000e+000
1.931538e-001,-1.829557e-005,0.000000e+000
1.936731e-001,-1.829557e-005,0.000000e+000
1.941923e-001,-1.762417e-005,0.000000e+000
1.947115e-001,-1.560998e-005,0.000000e+000
1.952308e-001,-1.560998e-005,0.000000e+000
1.957500e-001,-1.628138e-005,0.000000e+000
1.962692e-001,-1.628138e-005,0.000000e+000
1.967885e-001,-1.527428e-005,0.000000e+000
1.973077e-001,-1.560998e-005,0.000000e+000
1.978269e-001,-1.829557e-005,0.000000e+000
1.983462e-001,-1.896696e-005,0.000000e+000
1.988654e-001,-1.846342e-005,0.000000e+000
1.993846e-001,-1.795987e-005,0.000000e+000
1.999038e-001,-1.795987e-005,0.000000e+000
2.004231e-001,-1.930266e-005,0.000000e+000
2.009423e-001,-2.030976e-005,0.000000e+000
2.014615e-001,-2.030976e-005,0.000000e+000
2.019808e-001,-1.896696e-005,0.000000e+000
2.025000e-001,-1.896696e-005,0.000000e+000
2.030192e-001,-1.896696e-005,0.000000e+000
2.035385e-001,-1.963836e-005,0.000000e+000
2.040577e-001,-2.030976e-005,0.000000e+000
2.045769e-001,-2.098116e-005,0.000000e+000
2.050962e-001,-2.030976e-005,0.000000e+000
2.056154e-001,-1.829557e-005,0.000000e+000
2.061346e-001,-1.762417e-005,0.000000e+000
2.066538e-001,-1.829557e-005,0.000000e+000
2.071731e-001,-2.081331e-005,0.000000e+000
2.076923e-001,-2.198825e-005,0.000000e+000
2.082115e-001,-2.165255e-005,0.000000e+000
2.087308e-001,-2.198825e-005,0.000000e+000
2.092500e-001,-2.299535e-005,0.000000e+000
2.097692e-001,-2.299535e-005,0.000000e+000
2.102885e-001,-2.299535e-005,0.000000e+000
2.108077e-001,-2.299535e-005,0.000000e+000
2.113269e-001,-2.165255e-005,0.000000e+000
2.118462e-001,-1.963836e-005,0.000000e+000
2.123654e-001,-2.131685e-005,0.000000e+000
2.128846e-001,-2.433814e-005,0.000000e+000
2.134038e-001,-2.450599e-005,0.000000e+000
2.139231e-001,-2.349889e-005,0.000000e+000
2.144423e-001,-2.400244e-005,0.000000e+000
2.149615e-001,-2.568093e-005,0.000000e+000
2.154808e-001,-2.500954e-005,0.000000e+000
2.160000e-001,-2.433814e-005,0.000000e+000
2.165192e-001,-2.568093e-005,0.000000e+000
2.170385e-001,-2.568093e-005,0.000000e+000
2.175577e-001,-2.568093e-005,0.000000e+000
2.180769e-001,-2.668803e-005,0.000000e+000
2.185962e-001,-2.735943e-005,0.000000e+000
2.191154e-001,-2.635233e-005,0.000000e+000
2.196346e-001,-2.333104e-005,0.000000e+000
2.201538e-001,-1.896696e-005,0.000000e+000
2.206731e-001,-1.829557e-005,0.000000e+000
2.211923e-001,-1.896696e-005,0.000000e+000
2.217115e-001,-1.963836e-005,0.000000e+000
2.222308e-001,-2.030976e-005,0.000000e+000
2.227500e-001,-2.131685e-005,0.000000e+000
2.232692e-001,-2.165255e-005,0.000000e+000
2.237885e-001,-2.098116e-005,0.000000e+000
2.243077e-001,-1.930266e-005,0.000000e+000
2.248269e-001,-1.896696e-005,0.000000e+000
2.253462e-001,-1.896696e-005,0.000000e+000
2.258654e-001,-1.779202e-005,0.000000e+000
2.263846e-001,-1.896696e-005,0.000000e+000
2.269038e-001,-1.930266e-005,0.000000e+000
2.274231e-001,-1.896696e-005,0.000000e+000
2.279423e-001,-1.829557e-005,0.000000e+000
2.284615e-001,-1.863127e-005,0.000000e+000
2.289808e-001,-1.863127e-005,0.000000e+000
2.295000e-001,-2.030976e-005,0.000000e+000
2.300192e-001,-2.467384e-005,0.000000e+000
2.305385e-001,-2.568093e-005,0.000000e+000
2.310577e-001,-2.232395e-005,0.000000e+000
2.315769e-001,-1.829557e-005,0.000000e+000
2.320962e-001,-1.795987e-005,0.000000e+000
2.326154e-001,-2.098116e-005,0.000000e+000
2.331346e-001,-2.500954e-005,0.000000e+000
2.336538e-001,-2.568093e-005,0.000000e+000
2.341731e-001,-2.702373e-005,0.000000e+000
2.346923e-001,-2.836652e-005,0.000000e+000
2.352115e-001,-2.836652e-005,0.000000e+000
2.357308e-001,-2.719158e-005,0.000000e+000
2.362500e-001,-2.702373e-005,0.000000e+000
2.367692e-001,-2.769513e-005,0.000000e+000
2.372885e-001,-2.836652e-005,0.000000e+000
2.378077e-001,-2.702373e-005,0.000000e+000
2.383269e-001,-2.568093e-005,0.000000e+000
2.388462e-001,-2.635233e-005,0.000000e+000
2.393654e-001,-2.568093e-005,0.000000e+000
2.398846e-001,-2.467384e-005,0.000000e+000
2.404038e-001,-2.333104e-005,0.000000e+000
2.409231e-001,-2.198825e-005,0.000000e+000
2.414423e-001,-2.165255e-005,0.000000e+000
2.419615e-001,-2.030976e-005,0.000000e+000
2.424808e-001,-2.030976e-005,0.000000e+000
2.430000e-001,-2.165255e-005,0.000000e+000
2.435192e-001,-2.098116e-005,0.000000e+000
2.440385e-001,-1.930266e-005,0.000000e+000
2.445577e-001,-1.896696e-005,0.000000e+000
2.450769e-001,-1.829557e-005,0.000000e+000
2.455962e-001,-1.762417e-005,0.000000e+000
2.461154e-001,-1.762417e-005,0.000000e+000
2.466346e-001,-1.846342e-005,0.000000e+000
2.471538e-001,-1.829557e-005,0.000000e+000
2.476731e-001,-1.695277e-005,0.000000e+000
2.481923e-001,-1.628138e-005,0.000000e+000
2.487115e-001,-1.661708e-005,0.000000e+000
2.492308e-001,-1.661708e-005,0.000000e+000
2.497500e-001,-1.762417e-005,1.731700e-005
2.502692e-001,-1.829557e-005,1.733563e-005
2.507885e-001,-1.947051e-005,1.735569e-005
2.513077e-001,-2.081331e-005,1.737838e-005
2.518269e-001,-2.198825e-005,1.740427e-005
2.523462e-001,-2.165255e-005,1.743313e-005
2.528654e-001,-2.047761e-005,1.746106e-005
2.533846e-001,-1.913481e-005,1.748601e-005
2.539038e-001,-1.913481e-005,1.750776e-005
2.544231e-001,-2.098116e-005,1.752948e-005
2.549423e-001,-2.299535e-005,1.755557e-005
2.554615e-001,-2.165255e-005,1.758685e-005
2.559808e-001,-1.896696e-005,1.761454e-005
2.565000e-001,-1.695277e-005,1.763576e-005
2.570192e-001,-1.644922e-005,1.765269e-005
2.575385e-001,-1.762417e-005,1.766862e-005
2.580577e-001,-1.829557e-005,1.768688e-005
2.585769e-001,-1.812772e-005,1.770654e-005
2.590962e-001,-1.728847e-005,1.772582e-005
2.596154e-001,-1.863127e-005,1.774334e-005
2.601346e-001,-1.829557e-005,1.776367e-005
2.606538e-001,-1.762417e-005,1.778325e-005
2.611731e-001,-1.896696e-005,1.780139e-005
2.616923e-001,-1.963836e-005,1.782239e-005
2.622115e-001,-1.997406e-005,1.784487e-005
2.627308e-001,-2.030976e-005,1.786809e-005
2.632500e-001,-2.131685e-005,1.789207e-005
2.637692e-001,-2.098116e-005,1.791846e-005
2.642885e-001,-2.299535e-005,1.794398e-005
2.648077e-001,-2.433814e-005,1.797458e-005
2.653269e-001,-2.433814e-005,1.800880e-005
2.658462e-001,-2.333104e-005,1.804297e-005
2.663654e-001,-2.366674e-005,1.807430e-005
2.668846e-001,-2.400244e-005,1.810648e-005
2.674038e-001,-2.333104e-005,1.813953e-005
2.679231e-001,-2.299535e-005,1.817070e-005
2.684423e-001,-2.333104e-005,1.820092e-005
2.689615e-001,-2.047761e-005,1.823198e-005
2.694808e-001,-1.896696e-005,1.825588e-005
2.700000e-001,-2.165255e-005,1.827635e-005
2.705192e-001,-2.568093e-005,1.830300e-005
2.710385e-001,-2.366674e-005,1.834041e-005
2.715577e-001,-2.030976e-005,1.837213e-005
2.720769e-001,-1.930266e-005,1.839546e-005
2.725962e-001,-2.165255e-005,1.841650e-005
2.731154e-001,-2.333104e-005,1.844294e-005
2.736346e-001,-2.299535e-005,1.847360e-005
2.741538e-001,-2.165255e-005,1.850333e-005
2.746731e-001,-2.299535e-005,1.852965e-005
2.751923e-001,-2.433814e-005,1.855929e-005
2.757115e-001,-2.433814e-005,1.859243e-005
2.762308e-001,-2.299535e-005,1.862552e-005
2.767500e-001,-2.299535e-005,1.865501e-005
2.772692e-001,-2.165255e-005,1.868446e-005
2.777885e-001,-1.997406e-005,1.871052e-005
2.783077e-001,-1.896696e-005,1.873267e-005
2.788269e-001,-1.930266e-005,1.875262e-005
2.793462e-001,-2.064546e-005,1.877327e-005
2.798654e-001,-2.198825e-005,1.879685e-005
2.803846e-001,-2.232395e-005,1.882357e-005
2.809038e-001,-2.165255e-005,1.885107e-005
2.814231e-001,-2.131685e-005,1.887691e-005
2.819423e-001,-2.047761e-005,1.890191e-005
2.824615e-001,-1.913481e-005,1.892496e-005
2.829808e-001,-1.896696e-005,1.894506e-005
2.835000e-001,-1.896696e-005,1.896479e-005
2.840192e-001,-2.030976e-005,1.898450e-005
2.845385e-001,-2.182040e-005,1.900707e-005
2.850577e-001,-2.366674e-005,1.903309e-005
2.855769e-001,-2.500954e-005,1.906366e-005
2.860962e-001,-2.349889e-005,1.909774e-005
2.866154e-001,-2.165255e-005,1.912777e-005
2.871346e-001,-2.333104e-005,1.915323e-005
2.876538e-001,-2.433814e-005,1.918275e-005
2.881731e-001,-2.400244e-005,1.921482e-005
2.886923e-001,-2.299535e-005,1.924596e-005
2.892115e-001,-2.232395e-005,1.927450e-005
2.897308e-001,-2.165255e-005,1.930136e-005
2.902500e-001,-2.265965e-005,1.932660e-005
2.907692e-001,-2.333104e-005,1.935419e-005
2.912885e-001,-2.333104e-005,1.938341e-005
2.918077e-001,-2.366674e-005,1.941258e-005
2.923269e-001,-2.366674e-005,1.944255e-005
2.928462e-001,-2.450599e-005,1.947247e-005
2.933654e-001,-2.500954e-005,1.950450e-005
2.938846e-001,-2.316319e-005,1.953781e-005
2.944038e-001,-2.165255e-005,1.956633e-005
2.949231e-001,-2.249180e-005,1.959123e-005
2.954423e-001,-2.299535e-005,1.961805e-005
2.959615e-001,-2.299535e-005,1.964605e-005
2.964808e-001,-2.299535e-005,1.967401e-005
2.970000e-001,-2.232395e-005,1.970193e-005
2.975192e-001,-2.165255e-005,1.972820e-005
2.980385e-001,-2.064546e-005,1.975289e-005
2.985577e-001,-2.198825e-005,1.977531e-005
2.990769e-001,-2.433814e-005,1.980071e-005
2.995962e-001,-2.517739e-005,1.983178e-005
3.001154e-001,-2.568093e-005,1.986498e-005
3.006346e-001,-2.433814e-005,1.989946e-005
3.011538e-001,-2.299535e-005,1.993038e-005
3.016731e-001,-2.366674e-005,1.995794e-005
3.021923e-001,-2.232395e-005,1.998709e-005
3.027115e-001,-2.232395e-005,2.001299e-005
3.032308e-001,-2.232395e-005,2.003886e-005
3.037500e-001,-2.265965e-005,2.006470e-005
3.042692e-001,-2.232395e-005,2.009128e-005
3.047885e-001,-2.265965e-005,2.011705e-005
3.053077e-001,-2.098116e-005,2.014357e-005
3.058269e-001,-1.963836e-005,2.016627e-005
3.063462e-001,-1.963836e-005,2.018614e-005
3.068654e-001,-1.863127e-005,2.020599e-005
3.073846e-001,-1.913481e-005,2.022384e-005
3.079038e-001,-2.098116e-005,2.024265e-005
3.084231e-001,-2.047761e-005,2.026524e-005
3.089423e-001,-1.963836e-005,2.028674e-005
3.094615e-001,-2.098116e-005,2.030649e-005
3.099808e-001,-2.198825e-005,2.032902e-005
3.105000e-001,-2.198825e-005,2.035372e-005
3.110192e-001,-2.232395e-005,2.037840e-005
3.115385e-001,-2.232395e-005,2.040381e-005
3.120577e-001,-2.198825e-005,2.042918e-005
3.125769e-001,-2.249180e-005,2.045377e-005
3.130962e-001,-2.400244e-005,2.047946e-005
3.136154e-001,-2.299535e-005,2.050868e-005
3.141346e-001,-2.165255e-005,2.053547e-005
3.146538e-001,-2.030976e-005,2.055919e-005
3.151731e-001,-2.047761e-005,2.058003e-005
3.156923e-001,-2.064546e-005,2.060120e-005
3.162115e-001,-2.198825e-005,2.062270e-005
3.167308e-001,-2.333104e-005,2.064705e-005
3.172500e-001,-2.265965e-005,2.067444e-005
3.177692e-001,-2.114900e-005,2.070024e-005
3.182885e-001,-2.165255e-005,2.072269e-005
3.188077e-001,-2.064546e-005,2.074619e-005
3.193269e-001,-2.114900e-005,2.076754e-005
3.198462e-001,-2.165255e-005,2.078992e-005
3.203654e-001,-2.165255e-005,2.081334e-005
3.208846e-001,-1.863127e-005,2.083675e-005
3.214038e-001,-1.762417e-005,2.085406e-005
3.219231e-001,-2.030976e-005,2.086953e-005
3.224423e-001,-2.299535e-005,2.089007e-005
3.229615e-001,-2.333104e-005,2.091636e-005
3.234808e-001,-2.232395e-005,2.094340e-005
3.240000e-001,-2.198825e-005,2.096812e-005
3.245192e-001,-2.366674e-005,2.099207e-005
3.250385e-001,-2.299535e-005,2.101979e-005
3.255577e-001,-2.366674e-005,2.104592e-005
3.260769e-001,-2.366674e-005,2.107357e-005
3.265962e-001,-2.198825e-005,2.110118e-005
3.271154e-001,-2.064546e-005,2.112499e-005
3.276346e-001,-1.963836e-005,2.114595e-005
3.281538e-001,-1.795987e-005,2.116490e-005
3.286731e-001,-1.997406e-005,2.118074e-005
3.291923e-001,-2.232395e-005,2.120031e-005
3.297115e-001,-2.165255e-005,2.122473e-005
3.302308e-001,-1.963836e-005,2.124768e-005
3.307500e-001,-1.930266e-005,2.126654e-005
3.312692e-001,-1.997406e-005,2.128474e-005
3.317885e-001,-2.114900e-005,2.130422e-005
3.323077e-001,-1.896696e-005,2.132603e-005
3.328269e-001,-1.896696e-005,2.134356e-005
3.333462e-001,-1.963836e-005,2.136107e-005
3.338654e-001,-2.030976e-005,2.137983e-005
3.343846e-001,-1.930266e-005,2.139988e-005
3.349038e-001,-1.930266e-005,2.141797e-005
3.354231e-001,-2.064546e-005,2.143605e-005
3.359423e-001,-2.064546e-005,2.145671e-005
3.364615e-001,-2.131685e-005,2.147735e-005
3.369808e-001,-2.064546e-005,2.149933e-005
3.375000e-001,-1.896696e-005,2.151993e-005
3.380192e-001,-2.030976e-005,2.153730e-005
3.385385e-001,-2.400244e-005,2.155720e-005
3.390577e-001,-2.568093e-005,2.158496e-005
3.395769e-001,-2.500954e-005,2.161670e-005
3.400962e-001,-2.366674e-005,2.164676e-005
3.406154e-001,-2.265965e-005,2.167364e-005
3.411346e-001,-2.165255e-005,2.169825e-005
3.416538e-001,-2.064546e-005,2.172070e-005
3.421731e-001,-2.047761e-005,2.174109e-005
3.426923e-001,-2.131685e-005,2.176113e-005
3.432115e-001,-2.232395e-005,2.178282e-005
3.437308e-001,-2.366674e-005,2.180659e-005
3.442500e-001,-2.433814e-005,2.183328e-005
3.447692e-001,-2.400244e-005,2.184184e-005
3.452885e-001,-2.433814e-005,2.185090e-005
3.458077e-001,-2.433814e-005,2.186315e-005
3.463269e-001,-2.232395e-005,2.187972e-005
3.468462e-001,-2.232395e-005,2.189504e-005
3.473654e-001,-2.333104e-005,2.191157e-005
3.478846e-001,-2.433814e-005,2.192987e-005
3.484038e-001,-2.568093e-005,2.194736e-005
3.489231e-001,-2.517739e-005,2.196754e-005
3.494423e-001,-2.366674e-005,2.198599e-005
3.499615e-001,-2.500954e-005,2.200239e-005
3.504808e-001,-2.568093e-005,2.202139e-005
3.510000e-001,-2.232395e-005,2.204101e-005
3.515192e-001,-2.098116e-005,2.205445e-005
3.520385e-001,-2.182040e-005,2.206468e-005
3.525577e-001,-2.198825e-005,2.207410e-005
3.530769e-001,-2.165255e-005,2.208224e-005
3.535962e-001,-2.299535e-005,2.208912e-005
3.541154e-001,-2.383459e-005,2.209911e-005
3.546346e-001,-2.299535e-005,2.211231e-005
3.551538e-001,-1.963836e-005,2.212571e-005
3.556731e-001,-1.896696e-005,2.213238e-005
3.561923e-001,-2.030976e-005,2.213682e-005
3.567115e-001,-2.131685e-005,2.214374e-005
3.572308e-001,-2.299535e-005,2.215263e-005
3.577500e-001,-2.500954e-005,2.216500e-005
3.582692e-001,-2.568093e-005,2.217976e-005
3.587885e-001,-2.500954e-005,2.219498e-005
3.593077e-001,-2.232395e-005,2.220801e-005
3.598269e-001,-2.265965e-005,2.221450e-005
3.603462e-001,-2.232395e-005,2.222286e-005
3.608654e-001,-2.030976e-005,2.223136e-005
3.613846e-001,-1.930266e-005,2.223612e-005
3.619038e-001,-2.030976e-005,2.224063e-005
3.624231e-001,-2.165255e-005,2.224752e-005
3.629423e-001,-2.198825e-005,2.225652e-005
3.634615e-001,-2.232395e-005,2.226772e-005
3.639808e-001,-2.198825e-005,2.228056e-005
3.645000e-001,-2.131685e-005,2.229075e-005
3.650192e-001,-2.198825e-005,2.229958e-005
3.655385e-001,-2.366674e-005,2.231051e-005
3.660577e-001,-2.232395e-005,2.232374e-005
3.665769e-001,-1.997406e-005,2.233220e-005
3.670962e-001,-2.030976e-005,2.233313e-005
3.676154e-001,-2.299535e-005,2.233183e-005
3.681346e-001,-2.383459e-005,2.233429e-005
3.686538e-001,-2.265965e-005,2.233753e-005
3.691731e-001,-2.299535e-005,2.233386e-005
3.696923e-001,-2.232395e-005,2.233090e-005
3.702115e-001,-2.114900e-005,2.232948e-005
3.707308e-001,-1.846342e-005,2.232711e-005
3.712500e-001,-1.896696e-005,2.232115e-005
3.717692e-001,-2.030976e-005,2.231837e-005
3.722885e-001,-2.098116e-005,2.231773e-005
3.728077e-001,-2.165255e-005,2.231773e-005
3.733269e-001,-2.333104e-005,2.231565e-005
3.738462e-001,-2.366674e-005,2.231492e-005
3.743654e-001,-2.265965e-005,2.231780e-005
3.748846e-001,-2.098116e-005,2.232218e-005
3.754038e-001,-2.098116e-005,2.232085e-005
3.759231e-001,-2.165255e-005,2.231526e-005
3.764423e-001,-2.165255e-005,2.230718e-005
3.769615e-001,-2.098116e-005,2.229829e-005
3.774808e-001,-2.165255e-005,2.228965e-005
3.780000e-001,-2.333104e-005,2.228312e-005
3.785192e-001,-2.333104e-005,2.227934e-005
3.790385e-001,-2.182040e-005,2.228006e-005
3.795577e-001,-2.030976e-005,2.227972e-005
3.800769e-001,-1.913481e-005,2.227641e-005
3.805962e-001,-1.896696e-005,2.227023e-005
3.811154e-001,-2.064546e-005,2.226376e-005
3.816346e-001,-2.098116e-005,2.226040e-005
3.821538e-001,-1.963836e-005,2.225626e-005
3.826731e-001,-2.030976e-005,2.224266e-005
3.831923e-001,-2.030976e-005,2.223191e-005
3.837115e-001,-2.030976e-005,2.222719e-005
3.842308e-001,-2.098116e-005,2.222455e-005
3.847500e-001,-2.047761e-005,2.222321e-005
3.852692e-001,-1.963836e-005,2.222289e-005
3.857885e-001,-1.930266e-005,2.222258e-005
3.863077e-001,-1.930266e-005,2.222197e-005
3.868269e-001,-2.030976e-005,2.222374e-005
3.873462e-001,-2.114900e-005,2.222499e-005
3.878654e-001,-2.165255e-005,2.222399e-005
3.883846e-001,-2.165255e-005,2.222261e-005
3.889038e-001,-2.165255e-005,2.222052e-005
3.894231e-001,-2.500954e-005,2.221625e-005
3.899423e-001,-2.702373e-005,2.221780e-005
3.904615e-001,-2.702373e-005,2.222576e-005
3.909808e-001,-2.568093e-005,2.223518e-005
3.915000e-001,-2.316319e-005,2.223982e-005
3.920192e-001,-2.299535e-005,2.223567e-005
3.925385e-001,-2.333104e-005,2.223270e-005
3.930577e-001,-2.299535e-005,2.222851e-005
3.935769e-001,-2.232395e-005,2.222553e-005
3.940962e-001,-2.098116e-005,2.222692e-005
3.946154e-001,-2.030976e-005,2.222821e-005
3.951346e-001,-1.930266e-005,2.223008e-005
3.956538e-001,-1.829557e-005,2.222821e-005
3.961731e-001,-1.963836e-005,2.221767e-005
3.966923e-001,-2.081331e-005,2.220404e-005
3.972115e-001,-2.098116e-005,2.219344e-005
3.977308e-001,-1.963836e-005,2.218632e-005
3.982500e-001,-1.829557e-005,2.217508e-005
3.987692e-001,-1.762417e-005,2.215821e-005
3.992885e-001,-1.980621e-005,2.214184e-005
3.998077e-001,-2.098116e-005,2.213089e-005
4.003269e-001,-2.098116e-005,2.212218e-005
4.008462e-001,-2.030976e-005,2.211106e-005
4.013654e-001,-2.098116e-005,2.209780e-005
4.018846e-001,-2.114900e-005,2.209064e-005
4.024038e-001,-2.165255e-005,2.208644e-005
4.029231e-001,-2.182040e-005,2.208779e-005
4.034423e-001,-2.165255e-005,2.209296e-005
4.039615e-001,-2.131685e-005,2.210255e-005
4.044808e-001,-2.047761e-005,2.211145e-005
4.050000e-001,-1.829557e-005,2.211656e-005
4.055192e-001,-1.896696e-005,2.211879e-005
4.060385e-001,-2.165255e-005,2.212298e-005
4.065577e-001,-2.198825e-005,2.213255e-005
4.070769e-001,-2.232395e-005,2.214039e-005
4.075962e-001,-2.165255e-005,2.214807e-005
4.081154e-001,-2.030976e-005,2.215711e-005
4.086346e-001,-2.232395e-005,2.215959e-005
4.091538e-001,-2.433814e-005,2.215816e-005
4.096731e-001,-2.316319e-005,2.215660e-005
4.101923e-001,-2.131685e-005,2.215475e-005
4.107115e-001,-2.198825e-005,2.214941e-005
4.112308e-001,-2.333104e-005,2.215210e-005
4.117500e-001,-2.433814e-005,2.217039e-005
4.122692e-001,-2.400244e-005,2.219653e-005
4.127885e-001,-2.198825e-005,2.222223e-005
4.133077e-001,-2.265965e-005,2.224283e-005
4.138269e-001,-2.299535e-005,2.226502e-005
4.143462e-001,-2.232395e-005,2.228911e-005
4.148654e-001,-2.366674e-005,2.231139e-005
4.153846e-001,-2.568093e-005,2.233557e-005
4.159038e-001,-2.735943e-005,2.236404e-005
4.164231e-001,-2.635233e-005,2.239639e-005
4.169423e-001,-2.433814e-005,2.242125e-005
4.174615e-001,-2.316319e-005,2.243539e-005
4.179808e-001,-2.299535e-005,2.244358e-005
4.185000e-001,-2.383459e-005,2.244865e-005
4.190192e-001,-2.584878e-005,2.244827e-005
4.195385e-001,-2.568093e-005,2.244540e-005
4.200577e-001,-2.467384e-005,2.244042e-005
4.205769e-001,-2.500954e-005,2.243134e-005
4.210962e-001,-2.500954e-005,2.242478e-005
4.216154e-001,-2.299535e-005,2.241469e-005
4.221346e-001,-2.030976e-005,2.239448e-005
4.226538e-001,-2.064546e-005,2.236886e-005
4.231731e-001,-2.366674e-005,2.233988e-005
4.236923e-001,-2.467384e-005,2.231083e-005
4.242115e-001,-2.299535e-005,2.228184e-005
4.247308e-001,-2.198825e-005,2.224907e-005
4.252500e-001,-2.366674e-005,2.221846e-005
4.257692e-001,-2.500954e-005,2.219856e-005
4.262885e-001,-2.450599e-005,2.218072e-005
4.268077e-001,-2.198825e-005,2.215967e-005
4.273269e-001,-2.433814e-005,2.213000e-005
4.278462e-001,-2.601663e-005,2.209888e-005
4.283654e-001,-2.500954e-005,2.206944e-005
4.288846e-001,-2.316319e-005,2.204686e-005
4.294038e-001,-2.198825e-005,2.202669e-005
4.299231e-001,-2.165255e-005,2.200594e-005
4.304423e-001,-2.165255e-005,2.198638e-005
4.309615e-001,-2.165255e-005,2.197316e-005
4.314808e-001,-2.030976e-005,2.196164e-005
4.320000e-001,-2.030976e-005,2.194485e-005
4.325192e-001,-2.064546e-005,2.192979e-005
4.330385e-001,-1.896696e-005,2.191873e-005
4.335577e-001,-1.795987e-005,2.190072e-005
4.340769e-001,-1.896696e-005,2.188049e-005
4.345962e-001,-1.980621e-005,2.186542e-005
4.351154e-001,-1.963836e-005,2.185591e-005
4.356346e-001,-1.896696e-005,2.184450e-005
4.361538e-001,-1.930266e-005,2.183264e-005
4.366731e-001,-2.131685e-005,2.182593e-005
4.371923e-001,-2.064546e-005,2.182165e-005
4.377115e-001,-2.064546e-005,2.180971e-005
4.382308e-001,-2.198825e-005,2.179859e-005
4.387500e-001,-2.366674e-005,2.179181e-005
4.392692e-001,-2.299535e-005,2.179181e-005
4.397885e-001,-2.366674e-005,2.179254e-005
4.403077e-001,-2.366674e-005,2.179367e-005
4.408269e-001,-2.098116e-005,2.179329e-005
4.413462e-001,-1.795987e-005,2.178757e-005
4.418654e-001,-1.795987e-005,2.177773e-005
4.423846e-001,-1.779202e-005,2.177074e-005
4.429038e-001,-1.896696e-005,2.176616e-005
4.434231e-001,-1.963836e-005,2.176736e-005
4.439423e-001,-2.064546e-005,2.176979e-005
4.444615e-001,-2.030976e-005,2.177531e-005
4.449808e-001,-2.064546e-005,2.178337e-005
4.455000e-001,-2.165255e-005,2.179208e-005
4.460192e-001,-2.098116e-005,2.180179e-005
4.465385e-001,-1.930266e-005,2.181014e-005
4.470577e-001,-1.695277e-005,2.181678e-005
4.475769e-001,-1.695277e-005,2.181886e-005
4.480962e-001,-1.829557e-005,2.181661e-005
4.486154e-001,-1.896696e-005,2.181542e-005
4.491346e-001,-1.997406e-005,2.181631e-005
4.496538e-001,-1.863127e-005,2.181995e-005
4.501731e-001,-1.829557e-005,2.182113e-005
4.506923e-001,-1.913481e-005,2.181932e-005
4.512115e-001,-1.896696e-005,2.181711e-005
4.517308e-001,-1.963836e-005,2.181460e-005
4.522500e-001,-1.997406e-005,2.181584e-005
4.527692e-001,-1.896696e-005,2.181770e-005
4.532885e-001,-1.863127e-005,2.181770e-005
4.538077e-001,-1.795987e-005,2.181587e-005
4.543269e-001,-1.829557e-005,2.181158e-005
4.548462e-001,-1.829557e-005,2.180656e-005
4.553654e-001,-1.930266e-005,2.180285e-005
4.558846e-001,-2.131685e-005,2.180465e-005
4.564038e-001,-2.366674e-005,2.181151e-005
4.569231e-001,-2.500954e-005,2.182225e-005
4.574423e-001,-2.433814e-005,2.183141e-005
4.579615e-001,-2.316319e-005,2.183659e-005
4.584808e-001,-2.433814e-005,2.183981e-005
4.590000e-001,-2.601663e-005,2.184499e-005
4.595192e-001,-2.584878e-005,2.185204e-005
4.600385e-001,-2.165255e-005,2.185866e-005
4.605577e-001,-1.896696e-005,2.185581e-005
4.610769e-001,-2.030976e-005,2.184777e-005
4.615962e-001,-2.165255e-005,2.184509e-005
4.621154e-001,-2.165255e-005,2.184905e-005
4.626346e-001,-2.030976e-005,2.184973e-005
4.631538e-001,-1.896696e-005,2.184118e-005
4.636731e-001,-1.762417e-005,2.182971e-005
4.641923e-001,-1.628138e-005,2.181820e-005
4.647115e-001,-1.896696e-005,2.180338e-005
4.652308e-001,-2.182040e-005,2.178908e-005
4.657500e-001,-2.098116e-005,2.178196e-005
4.662692e-001,-1.896696e-005,2.177470e-005
4.667885e-001,-1.963836e-005,2.176038e-005
4.673077e-001,-1.997406e-005,2.174730e-005
4.678269e-001,-2.030976e-005,2.173484e-005
4.683462e-001,-2.098116e-005,2.172050e-005
4.688654e-001,-2.165255e-005,2.170574e-005
4.693846e-001,-2.047761e-005,2.169493e-005
4.699038e-001,-2.165255e-005,2.168894e-005
4.704231e-001,-2.517739e-005,2.169417e-005
4.709423e-001,-2.517739e-005,2.170850e-005
4.714615e-001,-2.299535e-005,2.172162e-005
4.719808e-001,-2.265965e-005,2.172847e-005
4.725000e-001,-2.400244e-005,2.173330e-005
4.730192e-001,-2.467384e-005,2.173912e-005
4.735385e-001,-2.467384e-005,2.174581e-005
4.740577e-001,-2.400244e-005,2.175387e-005
4.745769e-001,-2.366674e-005,2.176359e-005
4.750962e-001,-2.165255e-005,2.177316e-005
4.756154e-001,-2.165255e-005,2.177837e-005
4.761346e-001,-2.366674e-005,2.178563e-005
4.766538e-001,-2.316319e-005,2.179519e-005
4.771731e-001,-2.265965e-005,2.180301e-005
4.776923e-001,-2.299535e-005,2.181034e-005
4.782115e-001,-2.433814e-005,2.181959e-005
4.787308e-001,-2.366674e-005,2.183127e-005
4.792500e-001,-2.333104e-005,2.184140e-005
4.797692e-001,-2.500954e-005,2.184768e-005
4.802885e-001,-2.601663e-005,2.184847e-005
4.808077e-001,-2.366674e-005,2.184930e-005
4.813269e-001,-2.232395e-005,2.185224e-005
4.818462e-001,-2.165255e-005,2.186002e-005
4.823654e-001,-2.098116e-005,2.186697e-005
4.828846e-001,-1.896696e-005,2.186697e-005
4.834038e-001,-1.963836e-005,2.185434e-005
4.839231e-001,-2.131685e-005,2.184131e-005
4.844423e-001,-2.249180e-005,2.182817e-005
4.849615e-001,-2.299535e-005,2.181394e-005
4.854808e-001,-2.299535e-005,2.180079e-005
4.860000e-001,-2.182040e-005,2.179075e-005
4.865192e-001,-2.030976e-005,2.177862e-005
4.870385e-001,-2.131685e-005,2.176169e-005
4.875577e-001,-2.299535e-005,2.174495e-005
4.880769e-001,-2.232395e-005,2.173532e-005
4.885962e-001,-2.232395e-005,2.172761e-005
4.891154e-001,-2.433814e-005,2.171823e-005
4.896346e-001,-2.467384e-005,2.171501e-005
4.901538e-001,-2.333104e-005,2.171501e-005
4.906731e-001,-2.182040e-005,2.171501e-005
4.911923e-001,-2.098116e-005,2.171466e-005
4.917115e-001,-2.333104e-005,2.171329e-005
4.922308e-001,-2.366674e-005,2.171960e-005
4.927500e-001,-2.098116e-005,2.172666e-005
4.932692e-001,-2.064546e-005,2.172529e-005
4.937885e-001,-2.114900e-005,2.172463e-005
4.943077e-001,-2.047761e-005,2.172820e-005
4.948269e-001,-1.980621e-005,2.173105e-005
4.953462e-001,-1.863127e-005,2.173380e-005
4.958654e-001,-2.030976e-005,2.173555e-005
4.963846e-001,-2.098116e-005,2.174042e-005
4.969038e-001,-2.098116e-005,2.174517e-005
4.974231e-001,-2.265965e-005,2.175021e-005
4.979423e-001,-2.299535e-005,2.176101e-005
4.984615e-001,-2.098116e-005,2.177361e-005
4.989808e-001,-2.131685e-005,2.178144e-005
4.995000e-001,-2.198825e-005,2.178995e-005
5.000192e-001,-2.232395e-005,2.179819e-005
5.005385e-001,-2.098116e-005,2.180599e-005
5.010577e-001,-1.963836e-005,2.180890e-005
5.015769e-001,-2.030976e-005,2.180664e-005
5.020962e-001,-2.232395e-005,2.180325e-005
5.026154e-001,-2.182040e-005,2.180466e-005
5.031346e-001,-1.980621e-005,2.180737e-005
5.036538e-001,-1.980621e-005,2.180862e-005
5.041731e-001,-2.198825e-005,2.180986e-005
5.046923e-001,-2.165255e-005,2.181193e-005
5.052115e-001,-2.098116e-005,2.180907e-005
5.057308e-001,-2.165255e-005,2.180770e-005
5.062500e-001,-2.165255e-005,2.181290e-005
5.067692e-001,-2.098116e-005,2.182155e-005
5.072885e-001,-2.182040e-005,2.182963e-005
5.078077e-001,-2.131685e-005,2.183751e-005
5.083269e-001,-2.098116e-005,2.184320e-005
5.088462e-001,-2.198825e-005,2.184851e-005
5.093654e-001,-2.433814e-005,2.185729e-005
5.098846e-001,-2.652018e-005,2.186895e-005
5.104038e-001,-2.735943e-005,2.188647e-005
5.109231e-001,-2.534523e-005,2.190726e-005
5.114423e-001,-2.232395e-005,2.192066e-005
5.119615e-001,-2.433814e-005,2.192601e-005
5.124808e-001,-2.735943e-005,2.193517e-005
5.130000e-001,-2.735943e-005,2.195109e-005
5.135192e-001,-2.500954e-005,2.196502e-005
5.140385e-001,-2.467384e-005,2.197378e-005
5.145577e-001,-2.400244e-005,2.197757e-005
5.150769e-001,-2.249180e-005,2.197680e-005
5.155962e-001,-2.232395e-005,2.197271e-005
5.161154e-001,-1.829557e-005,2.197053e-005
5.166346e-001,-1.091020e-005,2.195987e-005
5.171538e-001,-5.203327e-006,2.193822e-005
5.176731e-001,-2.517739e-006,2.191370e-005
5.181923e-001,-1.510643e-006,2.188890e-005
5.187115e-001,-1.510643e-006,2.186314e-005
5.192308e-001,-3.524834e-006,2.184331e-005
5.197500e-001,-6.881819e-006,2.182677e-005
5.202692e-001,-8.560311e-006,2.180669e-005
5.207885e-001,-1.124590e-005,2.177873e-005
5.213077e-001,-1.258869e-005,2.175802e-005
5.218269e-001,-1.158160e-005,2.174588e-005
5.223462e-001,-1.158160e-005,2.173448e-005
5.228654e-001,-1.426719e-005,2.171846e-005
5.233846e-001,-1.728847e-005,2.170215e-005
5.239038e-001,-1.896696e-005,2.169113e-005
5.244231e-001,-1.863127e-005,2.168590e-005
5.249423e-001,-1.963836e-005,2.167720e-005
5.254615e-001,-2.299535e-005,2.166728e-005
5.259808e-001,-2.500954e-005,2.166423e-005
5.265000e-001,-2.702373e-005,2.166887e-005
5.270192e-001,-2.836652e-005,2.167854e-005
5.275385e-001,-2.870222e-005,2.169463e-005
5.280577e-001,-2.887007e-005,2.171498e-005
5.285769e-001,-2.836652e-005,2.173765e-005
5.290962e-001,-2.786297e-005,2.175830e-005
5.296154e-001,-2.970932e-005,2.177502e-005
5.301346e-001,-3.172351e-005,2.179406e-005
5.306538e-001,-3.323415e-005,2.181828e-005
5.311731e-001,-3.407340e-005,2.184855e-005
5.316923e-001,-3.205920e-005,2.188214e-005
5.322115e-001,-3.273060e-005,2.191102e-005
5.327308e-001,-3.373770e-005,2.194445e-005
5.332500e-001,-3.138781e-005,2.198130e-005
5.337692e-001,-2.803082e-005,2.201086e-005
5.342885e-001,-2.903792e-005,2.202848e-005
5.348077e-001,-2.937362e-005,2.204579e-005
5.353269e-001,-2.970932e-005,2.206006e-005
5.358462e-001,-3.105211e-005,2.207217e-005
5.363654e-001,-3.038071e-005,2.209157e-005
5.368846e-001,-3.004501e-005,2.211293e-005
5.374038e-001,-3.105211e-005,2.212977e-005
5.379231e-001,-3.105211e-005,2.214723e-005
5.384423e-001,-3.038071e-005,2.216544e-005
5.389615e-001,-3.172351e-005,2.218392e-005
5.394808e-001,-3.273060e-005,2.220771e-005
5.400000e-001,-3.273060e-005,2.223589e-005
5.405192e-001,-3.239490e-005,2.226195e-005
5.410385e-001,-3.172351e-005,2.228553e-005
5.415577e-001,-3.172351e-005,2.230707e-005
5.420769e-001,-3.205920e-005,2.232785e-005
5.425962e-001,-3.021286e-005,2.234962e-005
5.431154e-001,-2.735943e-005,2.236414e-005
5.436346e-001,-2.433814e-005,2.236986e-005
5.441538e-001,-2.198825e-005,2.237245e-005
5.446731e-001,-2.366674e-005,2.237313e-005
5.451923e-001,-2.366674e-005,2.237565e-005
5.457115e-001,-2.131685e-005,2.237711e-005
5.462308e-001,-2.030976e-005,2.237365e-005
5.467500e-001,-2.198825e-005,2.236825e-005
5.472692e-001,-2.316319e-005,2.236755e-005
5.477885e-001,-2.232395e-005,2.237070e-005
5.483077e-001,-2.098116e-005,2.237405e-005
5.488269e-001,-2.098116e-005,2.237204e-005
5.493462e-001,-2.064546e-005,2.236497e-005
5.498654e-001,-2.064546e-005,2.235532e-005
5.503846e-001,-1.930266e-005,2.234447e-005
5.509038e-001,-1.896696e-005,2.233424e-005
5.514231e-001,-2.030976e-005,2.232637e-005
5.519423e-001,-1.963836e-005,2.231950e-005
5.524615e-001,-1.762417e-005,2.231425e-005
5.529808e-001,-1.527428e-005,2.230550e-005
5.535000e-001,-1.628138e-005,2.229314e-005
5.540192e-001,-1.829557e-005,2.228156e-005
5.545385e-001,-1.963836e-005,2.227392e-005
5.550577e-001,-1.980621e-005,2.226796e-005
5.555769e-001,-1.963836e-005,2.226572e-005
5.560962e-001,-1.829557e-005,2.226572e-005
5.566154e-001,-1.695277e-005,2.226334e-005
5.571346e-001,-1.560998e-005,2.226056e-005
5.576538e-001,-1.292439e-005,2.225484e-005
5.581731e-001,-1.393149e-005,2.224207e-005
5.586923e-001,-1.644922e-005,2.223154e-005
5.592115e-001,-1.762417e-005,2.222616e-005
5.597308e-001,-1.628138e-005,2.222010e-005
5.602500e-001,-1.795987e-005,2.220988e-005
5.607692e-001,-1.997406e-005,2.220235e-005
5.612885e-001,-2.030976e-005,2.219769e-005
5.618077e-001,-1.997406e-005,2.219367e-005
5.623269e-001,-2.064546e-005,2.218971e-005
5.628462e-001,-1.896696e-005,2.218598e-005
5.633654e-001,-1.728847e-005,2.217584e-005
5.638846e-001,-1.795987e-005,2.216506e-005
5.644038e-001,-1.896696e-005,2.215820e-005
5.649231e-001,-1.963836e-005,2.215573e-005
5.654423e-001,-1.913481e-005,2.215414e-005
5.659615e-001,-1.896696e-005,2.215133e-005
5.664808e-001,-2.098116e-005,2.214552e-005
5.670000e-001,-2.299535e-005,2.214063e-005
5.675192e-001,-2.299535e-005,2.214135e-005
5.680385e-001,-2.299535e-005,2.214518e-005
5.685577e-001,-2.383459e-005,2.214799e-005
5.690769e-001,-2.517739e-005,2.215465e-005
5.695962e-001,-2.601663e-005,2.216340e-005
5.701154e-001,-2.500954e-005,2.217316e-005
5.706346e-001,-2.400244e-005,2.218050e-005
5.711538e-001,-2.366674e-005,2.219123e-005
5.716731e-001,-2.500954e-005,2.220291e-005
5.721923e-001,-2.366674e-005,2.221288e-005
5.727115e-001,-2.299535e-005,2.221435e-005
5.732308e-001,-2.299535e-005,2.221362e-005
5.737500e-001,-2.232395e-005,2.221504e-005
5.742692e-001,-2.333104e-005,2.221574e-005
5.747885e-001,-2.316319e-005,2.221500e-005
5.753077e-001,-2.030976e-005,2.221536e-005
5.758269e-001,-1.829557e-005,2.220846e-005
5.763462e-001,-1.829557e-005,2.219790e-005
5.768654e-001,-2.030976e-005,2.219094e-005
5.773846e-001,-2.098116e-005,2.219029e-005
5.779038e-001,-1.896696e-005,2.219285e-005
5.784231e-001,-1.896696e-005,2.219459e-005
5.789423e-001,-2.030976e-005,2.219275e-005
5.794615e-001,-1.829557e-005,2.218873e-005
5.799808e-001,-1.695277e-005,2.218245e-005
5.805000e-001,-1.846342e-005,2.217784e-005
5.810192e-001,-1.980621e-005,2.217635e-005
5.815385e-001,-1.963836e-005,2.217604e-005
5.820577e-001,-2.165255e-005,2.217315e-005
5.825769e-001,-2.265965e-005,2.217827e-005
5.830962e-001,-2.265965e-005,2.218547e-005
5.836154e-001,-2.165255e-005,2.219146e-005
5.841346e-001,-2.165255e-005,2.219410e-005
5.846538e-001,-2.165255e-005,2.219860e-005
5.851731e-001,-2.114900e-005,2.220311e-005
5.856923e-001,-2.131685e-005,2.220409e-005
5.862115e-001,-2.299535e-005,2.220542e-005
5.867308e-001,-2.433814e-005,2.220890e-005
5.872500e-001,-2.568093e-005,2.221667e-005
5.877692e-001,-2.601663e-005,2.223069e-005
5.882885e-001,-2.618448e-005,2.224305e-005
5.888077e-001,-2.635233e-005,2.224817e-005
5.893269e-001,-2.568093e-005,2.224980e-005
5.898462e-001,-2.568093e-005,2.225139e-005
5.903654e-001,-2.500954e-005,2.225603e-005
5.908846e-001,-2.299535e-005,2.226126e-005
5.914038e-001,-2.265965e-005,2.226406e-005
5.919231e-001,-2.232395e-005,2.226814e-005
5.924423e-001,-2.165255e-005,2.227182e-005
5.929615e-001,-2.030976e-005,2.227250e-005
5.934808e-001,-2.064546e-005,2.226849e-005
5.940000e-001,-1.896696e-005,2.226224e-005
5.945192e-001,-1.896696e-005,2.225138e-005
5.950385e-001,-2.064546e-005,2.224127e-005
5.955577e-001,-2.098116e-005,2.223350e-005
5.960769e-001,-1.930266e-005,2.222639e-005
5.965962e-001,-1.762417e-005,2.222050e-005
5.971154e-001,-1.695277e-005,2.221172e-005
5.976346e-001,-1.628138e-005,2.219969e-005
5.981538e-001,-1.628138e-005,2.218436e-005
5.986731e-001,-1.896696e-005,2.216587e-005
5.991923e-001,-2.030976e-005,2.215301e-005
5.997115e-001,-2.114900e-005,2.214608e-005
6.002308e-001,-1.896696e-005,2.213772e-005
6.007500e-001,-1.695277e-005,2.212364e-005
6.012692e-001,-1.795987e-005,2.211372e-005
6.017885e-001,-1.963836e-005,2.210819e-005
6.023077e-001,-1.963836e-005,2.210394e-005
6.028269e-001,-2.198825e-005,2.209934e-005
6.033462e-001,-2.366674e-005,2.210002e-005
6.038654e-001,-2.333104e-005,2.210150e-005
6.043846e-001,-2.232395e-005,2.210038e-005
6.049038e-001,-2.098116e-005,2.209895e-005
6.054231e-001,-2.030976e-005,2.210152e-005
6.059423e-001,-2.030976e-005,2.210400e-005
6.064615e-001,-2.165255e-005,2.210400e-005
6.069808e-001,-2.433814e-005,2.210468e-005
6.075000e-001,-2.803082e-005,2.210766e-005
6.080192e-001,-3.038071e-005,2.211520e-005
6.085385e-001,-3.038071e-005,2.212758e-005
6.090577e-001,-3.038071e-005,2.214155e-005
6.095769e-001,-3.172351e-005,2.216148e-005
6.100962e-001,-3.121996e-005,2.218459e-005
6.106154e-001,-2.970932e-005,2.220689e-005
6.111346e-001,-2.970932e-005,2.222889e-005
6.116538e-001,-2.853437e-005,2.225273e-005
6.121731e-001,-2.903792e-005,2.227149e-005
6.126923e-001,-2.937362e-005,2.228896e-005
6.132115e-001,-2.517739e-005,2.230664e-005
6.137308e-001,-2.232395e-005,2.231295e-005
6.142500e-001,-2.232395e-005,2.231365e-005
6.147692e-001,-2.182040e-005,2.231569e-005
6.152885e-001,-2.232395e-005,2.231535e-005
6.158077e-001,-2.081331e-005,2.231247e-005
6.163269e-001,-1.896696e-005,2.230944e-005
6.168462e-001,-1.896696e-005,2.230761e-005
6.173654e-001,-2.047761e-005,2.230515e-005
6.178846e-001,-2.030976e-005,2.230005e-005
6.184038e-001,-1.896696e-005,2.229280e-005
6.189231e-001,-1.762417e-005,2.228563e-005
6.194423e-001,-1.762417e-005,2.227545e-005
6.199615e-001,-1.829557e-005,2.226669e-005
6.204808e-001,-1.661708e-005,2.226143e-005
6.210000e-001,-1.560998e-005,2.225841e-005
6.215192e-001,-1.460288e-005,2.225298e-005
6.220385e-001,-1.326009e-005,2.224367e-005
6.225577e-001,-1.493858e-005,2.223132e-005
6.230769e-001,-1.560998e-005,2.221983e-005
6.235962e-001,-1.628138e-005,2.220576e-005
6.241154e-001,-1.762417e-005,2.219194e-005
6.246346e-001,-1.997406e-005,2.218244e-005
6.251538e-001,-2.030976e-005,2.218050e-005
6.256731e-001,-2.030976e-005,2.217921e-005
6.261923e-001,-1.963836e-005,2.217656e-005
6.267115e-001,-1.980621e-005,2.217267e-005
6.272308e-001,-1.997406e-005,2.217042e-005
6.277500e-001,-1.930266e-005,2.216714e-005
6.282692e-001,-1.695277e-005,2.215909e-005
6.287885e-001,-1.896696e-005,2.214703e-005
6.293077e-001,-2.165255e-005,2.214157e-005
6.298269e-001,-2.299535e-005,2.214421e-005
6.303462e-001,-2.366674e-005,2.215185e-005
6.308654e-001,-2.400244e-005,2.216125e-005
6.313846e-001,-2.299535e-005,2.216828e-005
6.319038e-001,-2.249180e-005,2.217243e-005
6.324231e-001,-2.265965e-005,2.217806e-005
6.329423e-001,-2.198825e-005,2.218280e-005
6.334615e-001,-2.232395e-005,2.218612e-005
6.339808e-001,-2.198825e-005,2.219015e-005
6.345000e-001,-2.299535e-005,2.219217e-005
6.350192e-001,-2.366674e-005,2.219730e-005
6.355385e-001,-2.299535e-005,2.220547e-005
6.360577e-001,-2.165255e-005,2.221278e-005
6.365769e-001,-2.030976e-005,2.221728e-005
6.370962e-001,-1.930266e-005,2.221728e-005
6.376154e-001,-1.930266e-005,2.221379e-005
6.381346e-001,-2.131685e-005,2.220928e-005
6.386538e-001,-2.030976e-005,2.220861e-005
6.391731e-001,-1.829557e-005,2.220597e-005
6.396923e-001,-1.728847e-005,2.219235e-005
6.402115e-001,-1.795987e-005,2.217214e-005
6.407308e-001,-1.963836e-005,2.215302e-005
6.412500e-001,-2.198825e-005,2.214016e-005
6.417692e-001,-2.098116e-005,2.213767e-005
6.422885e-001,-1.963836e-005,2.213351e-005
6.428077e-001,-1.863127e-005,2.212606e-005
6.433269e-001,-1.896696e-005,2.211752e-005
6.438462e-001,-2.098116e-005,2.211101e-005
6.443654e-001,-2.030976e-005,2.211101e-005
6.448846e-001,-1.963836e-005,2.211101e-005
6.454038e-001,-2.030976e-005,2.211162e-005
6.459231e-001,-2.030976e-005,2.211528e-005
6.464423e-001,-1.963836e-005,2.211654e-005
6.469615e-001,-1.980621e-005,2.211430e-005
6.474808e-001,-2.165255e-005,2.211205e-005
6.480000e-001,-2.232395e-005,2.211596e-005
6.485192e-001,-2.265965e-005,2.212365e-005
6.490385e-001,-2.366674e-005,2.213318e-005
6.495577e-001,-2.517739e-005,2.214106e-005
6.500769e-001,-2.500954e-005,2.215015e-005
6.505962e-001,-2.500954e-005,2.215884e-005
6.511154e-001,-2.366674e-005,2.216883e-005
6.516346e-001,-2.165255e-005,2.217446e-005
6.521538e-001,-2.098116e-005,2.217547e-005
6.526731e-001,-2.198825e-005,2.217412e-005
6.531923e-001,-2.366674e-005,2.217447e-005
6.537115e-001,-2.249180e-005,2.217875e-005
6.542308e-001,-2.198825e-005,2.218116e-005
6.547500e-001,-2.383459e-005,2.218417e-005
6.552692e-001,-2.433814e-005,2.219510e-005
6.557885e-001,-2.333104e-005,2.220599e-005
6.563077e-001,-2.098116e-005,2.220952e-005
6.568269e-001,-2.098116e-005,2.220750e-005
6.573462e-001,-2.366674e-005,2.220477e-005
6.578654e-001,-2.433814e-005,2.220905e-005
6.583846e-001,-2.383459e-005,2.221746e-005
6.589038e-001,-2.383459e-005,2.222073e-005
6.594231e-001,-2.299535e-005,2.221959e-005
6.599423e-001,-2.198825e-005,2.221923e-005
6.604615e-001,-1.930266e-005,2.222059e-005
6.609808e-001,-1.896696e-005,2.221540e-005
6.615000e-001,-2.030976e-005,2.220676e-005
6.620192e-001,-2.030976e-005,2.219834e-005
6.625385e-001,-1.963836e-005,2.219068e-005
6.630577e-001,-1.896696e-005,2.218610e-005
6.635769e-001,-1.863127e-005,2.217889e-005
6.640962e-001,-1.795987e-005,2.217038e-005
6.646154e-001,-1.896696e-005,2.216213e-005
6.651346e-001,-1.997406e-005,2.215273e-005
6.656538e-001,-1.930266e-005,2.214050e-005
6.661731e-001,-1.846342e-005,2.212285e-005
6.666923e-001,-1.762417e-005,2.210623e-005
6.672115e-001,-1.997406e-005,2.209297e-005
6.677308e-001,-2.265965e-005,2.208650e-005
6.682500e-001,-2.433814e-005,2.208578e-005
6.687692e-001,-2.232395e-005,2.208692e-005
6.692885e-001,-1.997406e-005,2.207893e-005
6.698077e-001,-2.114900e-005,2.206666e-005
6.703269e-001,-2.232395e-005,2.205905e-005
6.708462e-001,-2.165255e-005,2.205306e-005
6.713654e-001,-2.131685e-005,2.204567e-005
6.718846e-001,-2.232395e-005,2.204216e-005
6.724038e-001,-2.500954e-005,2.204621e-005
6.729231e-001,-2.500954e-005,2.205561e-005
6.734423e-001,-2.500954e-005,2.205869e-005
6.739615e-001,-2.366674e-005,2.205947e-005
6.744808e-001,-2.232395e-005,2.206095e-005
6.750000e-001,-2.299535e-005,2.206165e-005
6.755192e-001,-2.333104e-005,2.206017e-005
6.760385e-001,-2.299535e-005,2.205635e-005
6.765577e-001,-2.433814e-005,2.205297e-005
6.770769e-001,-2.635233e-005,2.205810e-005
6.775962e-001,-2.568093e-005,2.206291e-005
6.781154e-001,-2.467384e-005,2.206209e-005
6.786346e-001,-2.433814e-005,2.206131e-005
6.791538e-001,-2.064546e-005,2.206394e-005
6.796731e-001,-2.064546e-005,2.206124e-005
6.801923e-001,-2.165255e-005,2.205923e-005
6.807115e-001,-2.165255e-005,2.205923e-005
6.812308e-001,-2.030976e-005,2.205923e-005
6.817500e-001,-2.030976e-005,2.205923e-005
6.822692e-001,-2.165255e-005,2.205923e-005
6.827885e-001,-2.131685e-005,2.206124e-005
6.833077e-001,-1.493858e-005,2.206570e-005
6.838269e-001,-8.224612e-006,2.206101e-005
6.843462e-001,-6.881819e-006,2.204725e-005
6.848654e-001,-6.881819e-006,2.203098e-005
6.853846e-001,-7.217518e-006,2.201501e-005
6.859038e-001,-9.567407e-006,2.200048e-005
6.864231e-001,-9.903105e-006,2.198719e-005
6.869423e-001,-1.091020e-005,2.197034e-005
6.874615e-001,-1.258869e-005,2.195580e-005
6.879808e-001,-1.292439e-005,2.194312e-005
6.885000e-001,-1.460288e-005,2.192812e-005
6.890192e-001,-1.762417e-005,2.191168e-005
6.895385e-001,-1.695277e-005,2.190132e-005
6.900577e-001,-1.628138e-005,2.188837e-005
6.905769e-001,-1.930266e-005,2.187436e-005
6.910962e-001,-2.249180e-005,2.187114e-005
6.916154e-001,-2.383459e-005,2.187986e-005
6.921346e-001,-2.584878e-005,2.189152e-005
6.926538e-001,-2.803082e-005,2.190821e-005
6.931731e-001,-2.970932e-005,2.192841e-005
6.936923e-001,-3.172351e-005,2.195196e-005
6.942115e-001,-3.575189e-005,2.197941e-005
6.947308e-001,-3.776608e-005,2.202032e-005
6.952500e-001,-3.978027e-005,2.206748e-005
6.957692e-001,-4.145876e-005,2.211987e-005
6.962885e-001,-4.179446e-005,2.217988e-005
6.968077e-001,-4.045167e-005,2.224419e-005
6.973269e-001,-3.910887e-005,2.230714e-005
6.978462e-001,-3.776608e-005,2.236494e-005
6.983654e-001,-3.591974e-005,2.241562e-005
6.988846e-001,-3.273060e-005,2.245873e-005
6.994038e-001,-3.239490e-005,2.248982e-005
6.999231e-001,-3.306630e-005,2.252226e-005
7.004423e-001,-3.273060e-005,2.255725e-005
7.009615e-001,-3.105211e-005,2.258972e-005
7.014808e-001,-2.970932e-005,2.261752e-005
7.020000e-001,-2.987716e-005,2.264035e-005
7.025192e-001,-3.105211e-005,2.266301e-005
7.030385e-001,-3.172351e-005,2.269072e-005
7.035577e-001,-3.138781e-005,2.272090e-005
7.040769e-001,-2.836652e-005,2.275120e-005
7.045962e-001,-2.400244e-005,2.277266e-005
7.051154e-001,-2.299535e-005,2.278367e-005
7.056346e-001,-2.299535e-005,2.279080e-005
7.061538e-001,-2.030976e-005,2.279419e-005
7.066731e-001,-2.030976e-005,2.278746e-005
7.071923e-001,-2.232395e-005,2.277774e-005
7.077115e-001,-2.165255e-005,2.277345e-005
7.082308e-001,-1.930266e-005,2.277036e-005
7.087500e-001,-1.829557e-005,2.276032e-005
7.092692e-001,-1.829557e-005,2.274469e-005
7.097885e-001,-1.863127e-005,2.272945e-005
7.103077e-001,-1.628138e-005,2.272388e-005
7.108269e-001,-1.560998e-005,2.271955e-005
7.113462e-001,-1.527428e-005,2.271183e-005
7.118654e-001,-1.460288e-005,2.270104e-005
7.123846e-001,-1.527428e-005,2.268934e-005
7.129038e-001,-1.560998e-005,2.268112e-005
7.134231e-001,-1.426719e-005,2.267580e-005
7.139423e-001,-1.628138e-005,2.267090e-005
7.144615e-001,-1.829557e-005,2.267090e-005
7.149808e-001,-1.762417e-005,2.266975e-005
7.155000e-001,-1.762417e-005,2.266216e-005
7.160192e-001,-1.795987e-005,2.265621e-005
7.165385e-001,-1.628138e-005,2.265451e-005
7.170577e-001,-1.577783e-005,2.264897e-005
7.175769e-001,-1.510643e-005,2.264209e-005
7.180962e-001,-1.359579e-005,2.263362e-005
7.186154e-001,-1.393149e-005,2.262189e-005
7.191346e-001,-1.560998e-005,2.260926e-005
7.196538e-001,-1.695277e-005,2.260119e-005
7.201731e-001,-1.829557e-005,2.259284e-005
7.206923e-001,-2.030976e-005,2.257907e-005
7.212115e-001,-1.963836e-005,2.256887e-005
7.217308e-001,-2.030976e-005,2.256228e-005
7.222500e-001,-2.114900e-005,2.255763e-005
7.227692e-001,-1.930266e-005,2.255169e-005
7.232885e-001,-1.846342e-005,2.254080e-005
7.238077e-001,-2.030976e-005,2.252844e-005
7.243269e-001,-2.098116e-005,2.252089e-005
7.248462e-001,-2.030976e-005,2.251535e-005
7.253654e-001,-1.896696e-005,2.251275e-005
7.258846e-001,-2.114900e-005,2.250771e-005
7.264038e-001,-2.383459e-005,2.250250e-005
7.269231e-001,-2.366674e-005,2.250396e-005
7.274423e-001,-2.232395e-005,2.250612e-005
7.279615e-001,-2.232395e-005,2.250471e-005
7.284808e-001,-2.299535e-005,2.250037e-005
7.290000e-001,-2.299535e-005,2.249892e-005
7.295192e-001,-2.232395e-005,2.249820e-005
7.300385e-001,-1.997406e-005,2.249233e-005
7.305577e-001,-1.863127e-005,2.247948e-005
7.310769e-001,-1.829557e-005,2.246963e-005
7.315962e-001,-1.896696e-005,2.246206e-005
7.321154e-001,-1.762417e-005,2.245701e-005
7.326346e-001,-1.896696e-005,2.245101e-005
7.331538e-001,-1.963836e-005,2.245101e-005
7.336731e-001,-2.064546e-005,2.245101e-005
7.341923e-001,-2.232395e-005,2.244971e-005
7.347115e-001,-2.366674e-005,2.244936e-005
7.352308e-001,-2.433814e-005,2.245081e-005
7.357500e-001,-2.467384e-005,2.245375e-005
7.362692e-001,-2.433814e-005,2.245989e-005
7.367885e-001,-2.433814e-005,2.246821e-005
7.373077e-001,-2.232395e-005,2.247459e-005
7.378269e-001,-2.064546e-005,2.247319e-005
7.383462e-001,-2.198825e-005,2.246985e-005
7.388654e-001,-2.333104e-005,2.246916e-005
7.393846e-001,-2.131685e-005,2.246694e-005
7.399038e-001,-2.030976e-005,2.245980e-005
7.404231e-001,-2.064546e-005,2.245369e-005
7.409423e-001,-2.299535e-005,2.245138e-005
7.414615e-001,-2.433814e-005,2.245548e-005
7.419808e-001,-2.450599e-005,2.245771e-005
7.425000e-001,-2.198825e-005,2.245958e-005
7.430192e-001,-2.232395e-005,2.246158e-005
7.435385e-001,-2.400244e-005,2.246492e-005
7.440577e-001,-2.299535e-005,2.247088e-005
7.445769e-001,-2.064546e-005,2.247594e-005
7.450962e-001,-1.829557e-005,2.247751e-005
7.456154e-001,-1.896696e-005,2.247694e-005
7.461346e-001,-1.930266e-005,2.247450e-005
7.466538e-001,-1.930266e-005,2.247137e-005
7.471731e-001,-2.030976e-005,2.246824e-005
7.476923e-001,-2.165255e-005,2.246357e-005
7.482115e-001,-2.165255e-005,2.246080e-005
7.487308e-001,-2.165255e-005,2.246212e-005
7.492500e-001,-2.265965e-005,2.246279e-005
7.497692e-001,-2.299535e-005,2.246418e-005
7.502885e-001,-2.299535e-005,2.246558e-005
7.508077e-001,-2.131685e-005,2.246968e-005
7.513269e-001,-2.030976e-005,2.247286e-005
7.518462e-001,-2.165255e-005,2.247286e-005
7.523654e-001,-2.165255e-005,2.247150e-005
7.528846e-001,-2.098116e-005,2.247116e-005
7.534038e-001,-1.997406e-005,2.247338e-005
7.539231e-001,-2.047761e-005,2.247369e-005
7.544423e-001,-2.030976e-005,2.247072e-005
7.549615e-001,-2.064546e-005,2.246811e-005
7.554808e-001,-2.366674e-005,2.246746e-005
7.560000e-001,-2.433814e-005,2.247169e-005
7.565192e-001,-2.366674e-005,2.247740e-005
7.570385e-001,-2.182040e-005,2.248295e-005
7.575577e-001,-2.198825e-005,2.248295e-005
7.580769e-001,-2.232395e-005,2.248429e-005
7.585962e-001,-2.098116e-005,2.248698e-005
7.591154e-001,-1.527428e-005,2.248498e-005
7.596346e-001,-1.057450e-005,2.246837e-005
7.601538e-001,-6.546120e-006,2.244099e-005
7.606731e-001,-1.846342e-006,2.240828e-005
7.611923e-001,5.035477e-007,2.237862e-005
7.617115e-001,1.678492e-007,2.235547e-005
7.622308e-001,-1.510643e-006,2.232791e-005
7.627500e-001,-3.021286e-006,2.229314e-005
7.632692e-001,-5.203327e-006,2.225863e-005
7.637885e-001,-8.896010e-006,2.223067e-005
7.643077e-001,-1.091020e-005,2.220589e-005
7.648269e-001,-1.107805e-005,2.218448e-005
7.653462e-001,-1.359579e-005,2.216652e-005
7.658654e-001,-1.712062e-005,2.215181e-005
7.663846e-001,-1.963836e-005,2.214986e-005
7.669038e-001,-2.030976e-005,2.216237e-005
7.674231e-001,-2.299535e-005,2.218044e-005
7.679423e-001,-2.702373e-005,2.220491e-005
7.684615e-001,-2.836652e-005,2.223897e-005
7.689808e-001,-2.769513e-005,2.227644e-005
7.695000e-001,-2.903792e-005,2.231162e-005
7.700192e-001,-3.138781e-005,2.234867e-005
7.705385e-001,-3.440909e-005,2.239105e-005
7.710577e-001,-3.659113e-005,2.244009e-005
7.715769e-001,-3.675899e-005,2.249470e-005
7.720962e-001,-3.474479e-005,2.255088e-005
7.726154e-001,-3.541619e-005,2.260029e-005
7.731346e-001,-3.642328e-005,2.264856e-005
7.736538e-001,-3.575189e-005,2.269569e-005
7.741731e-001,-3.541619e-005,2.273771e-005
7.746923e-001,-3.508049e-005,2.277915e-005
7.752115e-001,-3.508049e-005,2.281768e-005
7.757308e-001,-3.608759e-005,2.284963e-005
7.762500e-001,-3.776608e-005,2.288040e-005
7.767692e-001,-4.045167e-005,2.291200e-005
7.772885e-001,-4.246586e-005,2.294970e-005
7.778077e-001,-4.179446e-005,2.299402e-005
7.783269e-001,-4.078737e-005,2.303527e-005
7.788462e-001,-4.045167e-005,2.307400e-005
7.793654e-001,-3.776608e-005,2.311271e-005
7.798846e-001,-3.508049e-005,2.313715e-005
7.804038e-001,-3.440909e-005,2.314722e-005
7.809231e-001,-3.373770e-005,2.315079e-005
7.814423e-001,-3.373770e-005,2.314977e-005
7.819615e-001,-3.323415e-005,2.315473e-005
7.824808e-001,-3.105211e-005,2.315622e-005
7.830000e-001,-2.719158e-005,2.314841e-005
7.835192e-001,-2.702373e-005,2.313737e-005
7.840385e-001,-2.601663e-005,2.313487e-005
7.845577e-001,-2.568093e-005,2.312740e-005
7.850769e-001,-2.500954e-005,2.311826e-005
7.855962e-001,-2.433814e-005,2.310670e-005
7.861154e-001,-2.299535e-005,2.308996e-005
7.866346e-001,-2.114900e-005,2.307221e-005
7.871538e-001,-2.047761e-005,2.305168e-005
7.876731e-001,-2.366674e-005,2.302709e-005
7.881923e-001,-2.366674e-005,2.300884e-005
7.887115e-001,-1.896696e-005,2.299244e-005
7.892308e-001,-1.628138e-005,2.296319e-005
7.897500e-001,-1.510643e-005,2.292666e-005
7.902692e-001,-1.644922e-005,2.288841e-005
7.907885e-001,-1.762417e-005,2.285301e-005
7.913077e-001,-1.560998e-005,2.282134e-005
7.918269e-001,-1.527428e-005,2.278657e-005
7.923462e-001,-1.493858e-005,2.275030e-005
7.928654e-001,-1.493858e-005,2.271876e-005
7.933846e-001,-1.393149e-005,2.269471e-005
7.939038e-001,-1.225299e-005,2.267646e-005
7.944231e-001,-1.292439e-005,2.266118e-005
7.949423e-001,-1.393149e-005,2.264314e-005
7.954615e-001,-1.292439e-005,2.262633e-005
7.959808e-001,-1.409934e-005,2.261312e-005
7.965000e-001,-1.628138e-005,2.260330e-005
7.970192e-001,-1.829557e-005,2.259325e-005
7.975385e-001,-1.829557e-005,2.258396e-005
7.980577e-001,-1.795987e-005,2.257643e-005
7.985769e-001,-1.628138e-005,2.257102e-005
7.990962e-001,-1.426719e-005,2.256295e-005
7.996154e-001,-1.426719e-005,2.255269e-005
8.001346e-001,-1.560998e-005,2.254242e-005
8.006538e-001,-1.628138e-005,2.253647e-005
8.011731e-001,-1.795987e-005,2.253211e-005
8.016923e-001,-1.762417e-005,2.252796e-005
8.022115e-001,-1.678492e-005,2.252449e-005
8.027308e-001,-1.628138e-005,2.252316e-005
8.032500e-001,-1.762417e-005,2.252463e-005
8.037692e-001,-1.863127e-005,2.252673e-005
8.042885e-001,-1.963836e-005,2.252730e-005
8.048077e-001,-1.963836e-005,2.252730e-005
8.053269e-001,-2.030976e-005,2.252699e-005
8.058462e-001,-1.963836e-005,2.252823e-005
8.063654e-001,-1.896696e-005,2.253058e-005
8.068846e-001,-1.896696e-005,2.253392e-005
8.074038e-001,-1.762417e-005,2.253927e-005
8.079231e-001,-1.762417e-005,2.254590e-005
8.084423e-001,-1.963836e-005,2.255127e-005
8.089615e-001,-2.098116e-005,2.255657e-005
8.094808e-001,-2.232395e-005,2.256254e-005
8.100000e-001,-2.165255e-005,2.257329e-005
8.105192e-001,-2.165255e-005,2.258003e-005
8.110385e-001,-2.232395e-005,2.258325e-005
8.115577e-001,-2.433814e-005,2.258720e-005
8.120769e-001,-2.433814e-005,2.259610e-005
8.125962e-001,-2.265965e-005,2.260374e-005
8.131154e-001,-2.165255e-005,2.261080e-005
8.136346e-001,-2.265965e-005,2.261861e-005
8.141538e-001,-2.232395e-005,2.262739e-005
8.146731e-001,-2.030976e-005,2.263375e-005
8.151923e-001,-2.030976e-005,2.263499e-005
8.157115e-001,-2.064546e-005,2.263711e-005
8.162308e-001,-2.165255e-005,2.264017e-005
8.167500e-001,-2.198825e-005,2.264148e-005
8.172692e-001,-2.131685e-005,2.263940e-005
8.177885e-001,-2.232395e-005,2.263598e-005
8.183077e-001,-2.165255e-005,2.263459e-005
8.188269e-001,-2.064546e-005,2.263003e-005
8.193462e-001,-2.165255e-005,2.262049e-005
8.198654e-001,-2.165255e-005,2.261093e-005
8.203846e-001,-2.030976e-005,2.260372e-005
8.209038e-001,-1.980621e-005,2.259620e-005
8.214231e-001,-2.182040e-005,2.258848e-005
8.219423e-001,-2.333104e-005,2.258160e-005
8.224615e-001,-2.265965e-005,2.258087e-005
8.229808e-001,-2.232395e-005,2.258017e-005
8.235000e-001,-2.064546e-005,2.257877e-005
8.240192e-001,-1.896696e-005,2.257545e-005
8.245385e-001,-1.762417e-005,2.256695e-005
8.250577e-001,-1.762417e-005,2.255654e-005
8.255769e-001,-1.997406e-005,2.255184e-005
8.260962e-001,-2.098116e-005,2.255480e-005
8.266154e-001,-1.997406e-005,2.255966e-005
8.271346e-001,-1.560998e-005,2.255904e-005
8.276538e-001,-7.553216e-006,2.254998e-005
8.281731e-001,-4.196231e-006,2.253602e-005
8.286923e-001,-3.524834e-006,2.252024e-005
8.292115e-001,-2.853437e-006,2.250176e-005
8.297308e-001,-1.846342e-006,2.248667e-005
8.302500e-001,-3.524834e-006,2.247354e-005
8.307692e-001,-6.881819e-006,2.245834e-005
8.312885e-001,-1.091020e-005,2.244237e-005
8.318077e-001,-1.191730e-005,2.243001e-005
8.323269e-001,-1.258869e-005,2.241486e-005
8.328462e-001,-1.326009e-005,2.239840e-005
8.333654e-001,-1.426719e-005,2.238272e-005
8.338846e-001,-1.527428e-005,2.237040e-005
8.344038e-001,-1.628138e-005,2.235945e-005
8.349231e-001,-1.829557e-005,2.234998e-005
8.354423e-001,-2.098116e-005,2.234474e-005
8.359615e-001,-2.299535e-005,2.234408e-005
8.364808e-001,-2.500954e-005,2.234408e-005
8.370000e-001,-2.668803e-005,2.234562e-005
8.375192e-001,-2.836652e-005,2.234807e-005
8.380385e-001,-2.970932e-005,2.235402e-005
8.385577e-001,-3.239490e-005,2.236318e-005
8.390769e-001,-3.306630e-005,2.237967e-005
8.395962e-001,-3.172351e-005,2.239982e-005
8.401154e-001,-3.273060e-005,2.241591e-005
8.406346e-001,-3.407340e-005,2.243657e-005
8.411538e-001,-3.306630e-005,2.246584e-005
8.416731e-001,-3.340200e-005,2.249266e-005
8.421923e-001,-3.373770e-005,2.252117e-005
8.427115e-001,-3.508049e-005,2.255205e-005
8.432308e-001,-3.910887e-005,2.258973e-005
8.437500e-001,-4.129091e-005,2.264044e-005
8.442692e-001,-3.743038e-005,2.270212e-005
8.447885e-001,-3.524834e-005,2.274975e-005
8.453077e-001,-3.440909e-005,2.278701e-005
8.458269e-001,-3.373770e-005,2.282092e-005
8.463462e-001,-3.642328e-005,2.285576e-005
8.468654e-001,-3.927672e-005,2.290193e-005
8.473846e-001,-3.910887e-005,2.295883e-005
8.479038e-001,-3.709468e-005,2.301601e-005
8.484231e-001,-3.743038e-005,2.306613e-005
8.489423e-001,-3.877317e-005,2.311301e-005
8.494615e-001,-3.793393e-005,2.316202e-005
8.499808e-001,-3.407340e-005,2.320648e-005
8.505000e-001,-3.172351e-005,2.324235e-005
8.510192e-001,-3.172351e-005,2.327448e-005
8.515385e-001,-3.121996e-005,2.330500e-005
8.520577e-001,-3.038071e-005,2.333126e-005
8.525769e-001,-2.970932e-005,2.335519e-005
8.530962e-001,-2.735943e-005,2.337295e-005
8.536154e-001,-2.349889e-005,2.338133e-005
8.541346e-001,-1.896696e-005,2.338168e-005
8.546538e-001,-1.762417e-005,2.337551e-005
8.551731e-001,-2.198825e-005,2.336975e-005
8.556923e-001,-2.500954e-005,2.337291e-005
8.562115e-001,-2.400244e-005,2.338238e-005
8.567308e-001,-2.198825e-005,2.338715e-005
8.572500e-001,-2.098116e-005,2.338231e-005
8.577692e-001,-2.165255e-005,2.336694e-005
8.582885e-001,-2.165255e-005,2.334673e-005
8.588077e-001,-2.030976e-005,2.332650e-005
8.593269e-001,-1.863127e-005,2.330374e-005
8.598462e-001,-1.577783e-005,2.327432e-005
8.603654e-001,-1.560998e-005,2.324188e-005
8.608846e-001,-1.560998e-005,2.321328e-005
8.614038e-001,-1.359579e-005,2.318465e-005
8.619231e-001,-1.292439e-005,2.315641e-005
8.624423e-001,-1.275654e-005,2.312604e-005
8.629615e-001,-1.359579e-005,2.309455e-005
8.634808e-001,-1.527428e-005,2.307433e-005
8.640000e-001,-1.426719e-005,2.306239e-005
8.645192e-001,-1.359579e-005,2.304910e-005
8.650385e-001,-1.292439e-005,2.303595e-005
8.655577e-001,-1.225299e-005,2.302100e-005
8.660769e-001,-1.158160e-005,2.300821e-005
8.665962e-001,-9.903105e-006,2.299802e-005
8.671154e-001,-9.567407e-006,2.298619e-005
8.676346e-001,-1.225299e-005,2.297136e-005
8.681538e-001,-1.359579e-005,2.295948e-005
8.686731e-001,-1.426719e-005,2.295156e-005
8.691923e-001,-1.527428e-005,2.294671e-005
8.697115e-001,-1.728847e-005,2.294321e-005
8.702308e-001,-2.030976e-005,2.294159e-005
8.707500e-001,-1.997406e-005,2.294776e-005
8.712692e-001,-1.896696e-005,2.295480e-005
8.717885e-001,-1.930266e-005,2.296143e-005
8.723077e-001,-1.795987e-005,2.297034e-005
8.728269e-001,-1.896696e-005,2.297484e-005
8.733462e-001,-2.047761e-005,2.298009e-005
8.738654e-001,-2.030976e-005,2.298706e-005
8.743846e-001,-1.896696e-005,2.299167e-005
8.749038e-001,-1.863127e-005,2.298990e-005
8.754231e-001,-1.762417e-005,2.298694e-005
8.759423e-001,-1.829557e-005,2.298233e-005
8.764615e-001,-1.913481e-005,2.298003e-005
8.769808e-001,-1.829557e-005,2.297885e-005
8.775000e-001,-1.863127e-005,2.297594e-005
8.780192e-001,-1.930266e-005,2.297479e-005
8.785385e-001,-1.863127e-005,2.297864e-005
8.790577e-001,-1.896696e-005,2.297807e-005
8.795769e-001,-1.997406e-005,2.297314e-005
8.800962e-001,-1.963836e-005,2.296726e-005
8.806154e-001,-1.795987e-005,2.295936e-005
8.811346e-001,-1.896696e-005,2.294788e-005
8.816538e-001,-2.030976e-005,2.294022e-005
8.821731e-001,-1.963836e-005,2.293599e-005
8.826923e-001,-1.930266e-005,2.293020e-005
8.832115e-001,-2.299535e-005,2.292517e-005
8.837308e-001,-2.467384e-005,2.292655e-005
8.842500e-001,-2.568093e-005,2.293223e-005
8.847692e-001,-2.500954e-005,2.293816e-005
8.852885e-001,-2.299535e-005,2.294112e-005
8.858077e-001,-2.299535e-005,2.294112e-005
8.863269e-001,-2.500954e-005,2.294383e-005
8.868462e-001,-2.500954e-005,2.295348e-005
8.873654e-001,-2.299535e-005,2.296493e-005
8.878846e-001,-2.165255e-005,2.297200e-005
8.884038e-001,-2.098116e-005,2.297265e-005
8.889231e-001,-2.081331e-005,2.297391e-005
8.894423e-001,-2.131685e-005,2.297836e-005
8.899615e-001,-2.165255e-005,2.298540e-005
8.904808e-001,-2.333104e-005,2.299201e-005
8.910000e-001,-2.316319e-005,2.299919e-005
8.915192e-001,-2.198825e-005,2.300158e-005
8.920385e-001,-2.265965e-005,2.300354e-005
8.925577e-001,-2.467384e-005,2.300931e-005
8.930769e-001,-2.568093e-005,2.302113e-005
8.935962e-001,-2.517739e-005,2.303466e-005
8.941154e-001,-2.366674e-005,2.304340e-005
8.946346e-001,-2.198825e-005,2.305006e-005
8.951538e-001,-2.165255e-005,2.305447e-005
8.956731e-001,-2.333104e-005,2.305701e-005
8.961923e-001,-2.366674e-005,2.306296e-005
8.967115e-001,-2.333104e-005,2.307082e-005
8.972308e-001,-2.433814e-005,2.307767e-005
8.977500e-001,-2.333104e-005,2.308323e-005
8.982692e-001,-2.165255e-005,2.308530e-005
8.987885e-001,-2.232395e-005,2.308329e-005
8.993077e-001,-2.433814e-005,2.308051e-005
8.998269e-001,-2.366674e-005,2.307864e-005
9.003462e-001,-2.198825e-005,2.307570e-005
9.008654e-001,-2.182040e-005,2.306930e-005
9.013846e-001,-2.299535e-005,2.306552e-005
9.019038e-001,-2.366674e-005,2.306822e-005
9.024231e-001,-2.198825e-005,2.307362e-005
9.029423e-001,-1.980621e-005,2.307362e-005
9.034615e-001,-1.963836e-005,2.306606e-005
9.039808e-001,-1.963836e-005,2.306064e-005
9.045000e-001,-1.980621e-005,2.305623e-005
9.050192e-001,-2.098116e-005,2.304830e-005
9.055385e-001,-2.098116e-005,2.304144e-005
9.060577e-001,-2.047761e-005,2.303674e-005
9.065769e-001,-2.165255e-005,2.303580e-005
9.070962e-001,-2.232395e-005,2.303709e-005
9.076154e-001,-2.098116e-005,2.303430e-005
9.081346e-001,-2.030976e-005,2.302743e-005
9.086538e-001,-2.165255e-005,2.302041e-005
9.091731e-001,-2.299535e-005,2.301593e-005
9.096923e-001,-2.299535e-005,2.301593e-005
9.102115e-001,-2.333104e-005,2.301797e-005
9.107308e-001,-2.366674e-005,2.302573e-005
9.112500e-001,-2.366674e-005,2.303477e-005
9.117692e-001,-2.198825e-005,2.304143e-005
9.122885e-001,-2.064546e-005,2.304463e-005
9.128077e-001,-1.980621e-005,2.304646e-005
9.133269e-001,-2.047761e-005,2.304793e-005
9.138462e-001,-2.098116e-005,2.305119e-005
9.143654e-001,-2.232395e-005,2.305649e-005
9.148846e-001,-2.450599e-005,2.306274e-005
9.154038e-001,-2.500954e-005,2.307183e-005
9.159231e-001,-2.467384e-005,2.308322e-005
9.164423e-001,-2.568093e-005,2.309528e-005
9.169615e-001,-2.702373e-005,2.311098e-005
9.174808e-001,-2.668803e-005,2.312588e-005
9.180000e-001,-2.601663e-005,2.313481e-005
9.185192e-001,-2.702373e-005,2.313861e-005
9.190385e-001,-2.601663e-005,2.314902e-005
9.195577e-001,-2.450599e-005,2.316150e-005
9.200769e-001,-2.299535e-005,2.316838e-005
9.205962e-001,-2.165255e-005,2.316974e-005
9.211154e-001,-2.299535e-005,2.316974e-005
9.216346e-001,-2.568093e-005,2.317308e-005
9.221538e-001,-2.534523e-005,2.318031e-005
9.226731e-001,-2.333104e-005,2.318106e-005
9.231923e-001,-2.316319e-005,2.317743e-005
9.237115e-001,-2.299535e-005,2.317344e-005
9.242308e-001,-2.165255e-005,2.317203e-005
9.247500e-001,-2.165255e-005,2.317071e-005
9.252692e-001,-2.366674e-005,2.316802e-005
9.257885e-001,-2.568093e-005,2.316873e-005
9.263077e-001,-2.450599e-005,2.317459e-005
9.268269e-001,-2.333104e-005,2.317496e-005
9.273462e-001,-1.963836e-005,2.316822e-005
9.278654e-001,-1.091020e-005,2.315593e-005
9.283846e-001,-3.189136e-006,2.313394e-005
9.289038e-001,1.678492e-007,2.310776e-005
9.294231e-001,-1.678492e-007,2.308858e-005
9.299423e-001,-1.007095e-006,2.306938e-005
9.304615e-001,-1.846342e-006,2.304829e-005
9.309808e-001,-2.853437e-006,2.302729e-005
9.315000e-001,-3.524834e-006,2.300903e-005
9.320192e-001,-5.874723e-006,2.299095e-005
9.325385e-001,-8.896010e-006,2.297131e-005
9.330577e-001,-9.735256e-006,2.295432e-005
9.335769e-001,-8.896010e-006,2.294850e-005
9.340962e-001,-1.023880e-005,2.294903e-005
9.346154e-001,-1.326009e-005,2.295163e-005
9.351346e-001,-1.594568e-005,2.295745e-005
9.356538e-001,-1.695277e-005,2.296660e-005
9.361731e-001,-1.896696e-005,2.297546e-005
9.366923e-001,-2.064546e-005,2.298729e-005
9.372115e-001,-2.198825e-005,2.300118e-005
9.377308e-001,-2.366674e-005,2.301587e-005
9.382500e-001,-2.366674e-005,2.303361e-005
9.387692e-001,-2.299535e-005,2.304926e-005
9.392885e-001,-2.366674e-005,2.305910e-005
9.398077e-001,-2.635233e-005,2.307139e-005
9.403269e-001,-2.903792e-005,2.309073e-005
9.408462e-001,-2.970932e-005,2.311190e-005
9.413654e-001,-3.121996e-005,2.312884e-005
9.418846e-001,-3.340200e-005,2.314711e-005
9.424038e-001,-3.508049e-005,2.316720e-005
9.429231e-001,-3.508049e-005,2.318715e-005
9.434423e-001,-3.591974e-005,2.320275e-005
9.439615e-001,-3.978027e-005,2.321546e-005
9.444808e-001,-4.380865e-005,2.322908e-005
9.450000e-001,-4.515145e-005,2.325113e-005
9.455192e-001,-4.649424e-005,2.327152e-005
9.460385e-001,-4.582284e-005,2.329129e-005
9.465577e-001,-4.448005e-005,2.330704e-005
9.470769e-001,-4.548714e-005,2.332229e-005
9.475962e-001,-4.380865e-005,2.334633e-005
9.481154e-001,-4.011597e-005,2.336827e-005
9.486346e-001,-3.793393e-005,2.338246e-005
9.491538e-001,-3.743038e-005,2.339880e-005
9.496731e-001,-3.776608e-005,2.341441e-005
9.501923e-001,-3.675899e-005,2.342919e-005
9.507115e-001,-3.642328e-005,2.344160e-005
9.512308e-001,-3.440909e-005,2.345767e-005
9.517500e-001,-3.373770e-005,2.347102e-005
9.522692e-001,-3.138781e-005,2.348189e-005
9.527885e-001,-2.769513e-005,2.348282e-005
9.533077e-001,-2.500954e-005,2.347222e-005
9.538269e-001,-2.232395e-005,2.345629e-005
9.543462e-001,-2.131685e-005,2.344271e-005
9.548654e-001,-2.098116e-005,2.343731e-005
9.553846e-001,-1.930266e-005,2.343338e-005
9.559038e-001,-1.896696e-005,2.342645e-005
9.564231e-001,-1.846342e-005,2.342411e-005
9.569423e-001,-1.795987e-005,2.342093e-005
9.574615e-001,-1.863127e-005,2.341313e-005
9.579808e-001,-1.829557e-005,2.340773e-005
9.585000e-001,-1.695277e-005,2.340605e-005
9.590192e-001,-1.560998e-005,2.340395e-005
9.595385e-001,-1.359579e-005,2.339990e-005
9.600577e-001,-1.158160e-005,2.339269e-005
9.605769e-001,-1.258869e-005,2.338687e-005
9.610962e-001,-1.493858e-005,2.338309e-005
9.616154e-001,-1.393149e-005,2.338263e-005
9.621346e-001,-1.292439e-005,2.338178e-005
9.626538e-001,-1.359579e-005,2.337884e-005
9.631731e-001,-1.544213e-005,2.337622e-005
9.636923e-001,-1.510643e-005,2.337777e-005
9.642115e-001,-1.493858e-005,2.337613e-005
9.647308e-001,-1.577783e-005,2.337117e-005
9.652500e-001,-1.661708e-005,2.336843e-005
9.657692e-001,-1.493858e-005,2.336689e-005
9.662885e-001,-1.628138e-005,2.336247e-005
9.668077e-001,-1.863127e-005,2.336247e-005
9.673269e-001,-1.863127e-005,2.336684e-005
9.678462e-001,-1.628138e-005,2.337213e-005
9.683654e-001,-1.628138e-005,2.337570e-005
9.688846e-001,-1.779202e-005,2.337885e-005
9.694038e-001,-1.896696e-005,2.338210e-005
9.699231e-001,-1.795987e-005,2.338531e-005
9.704423e-001,-1.762417e-005,2.338477e-005
9.709615e-001,-1.678492e-005,2.338024e-005
9.714808e-001,-1.594568e-005,2.337562e-005
9.720000e-001,-1.560998e-005,2.336858e-005
9.725192e-001,-1.829557e-005,2.335953e-005
9.730385e-001,-1.762417e-005,2.335784e-005
9.735577e-001,-1.527428e-005,2.335649e-005
9.740769e-001,-1.493858e-005,2.334852e-005
9.745962e-001,-1.762417e-005,2.333885e-005
9.751154e-001,-1.762417e-005,2.333431e-005
9.756346e-001,-1.695277e-005,2.333212e-005
9.761538e-001,-1.896696e-005,2.332500e-005
9.766731e-001,-2.198825e-005,2.331571e-005
9.771923e-001,-2.165255e-005,2.331230e-005
9.777115e-001,-1.896696e-005,2.331098e-005
9.782308e-001,-1.930266e-005,2.330480e-005
9.787500e-001,-1.896696e-005,2.329783e-005
9.792692e-001,-1.829557e-005,2.329029e-005
9.797885e-001,-2.030976e-005,2.328298e-005
9.803077e-001,-2.098116e-005,2.328359e-005
9.808269e-001,-2.030976e-005,2.328774e-005
9.813462e-001,-2.165255e-005,2.329121e-005
9.818654e-001,-2.030976e-005,2.329608e-005
9.823846e-001,-1.963836e-005,2.330062e-005
9.829038e-001,-2.030976e-005,2.330178e-005
9.834231e-001,-1.913481e-005,2.330298e-005
9.839423e-001,-1.829557e-005,2.330030e-005
9.844615e-001,-2.030976e-005,2.329300e-005
9.849808e-001,-2.030976e-005,2.328641e-005
9.855000e-001,-2.165255e-005,2.327838e-005
9.860192e-001,-2.299535e-005,2.327213e-005
9.865385e-001,-2.265965e-005,2.326929e-005
9.870577e-001,-2.165255e-005,2.326576e-005
9.875769e-001,-2.131685e-005,2.326444e-005
9.880962e-001,-2.098116e-005,2.326570e-005
9.886154e-001,-1.930266e-005,2.326377e-005
9.891346e-001,-1.930266e-005,2.325609e-005
9.896538e-001,-1.963836e-005,2.325243e-005
9.901731e-001,-2.098116e-005,2.325124e-005
9.906923e-001,-2.030976e-005,2.325186e-005
9.912115e-001,-1.963836e-005,2.324666e-005
9.917308e-001,-2.047761e-005,2.323742e-005
9.922500e-001,-2.232395e-005,2.322931e-005
9.927692e-001,-2.232395e-005,2.322997e-005
9.932885e-001,-2.098116e-005,2.322997e-005
9.938077e-001,-2.030976e-005,2.322389e-005
9.943269e-001,-2.299535e-005,2.321868e-005
9.948462e-001,-2.299535e-005,2.322327e-005
9.953654e-001,-2.198825e-005,2.323196e-005
9.958846e-001,-2.333104e-005,2.323750e-005
9.964038e-001,-2.668803e-005,2.324518e-005
9.969231e-001,-2.836652e-005,2.326036e-005
9.974423e-001,-2.568093e-005,2.327788e-005
9.979615e-001,-2.500954e-005,2.328639e-005
9.984808e-001,-2.702373e-005,2.329339e-005
9.990000e-001,-2.584878e-005,2.330505e-005
9.995192e-001,-2.333104e-005,2.331195e-005
1.000038e+000,-2.098116e-005,2.331264e-005
1.000558e+000,-2.299535e-005,2.330869e-005
1.001077e+000,-2.500954e-005,2.331201e-005
1.001596e+000,-2.165255e-005,2.332151e-005
1.002115e+000,-2.030976e-005,2.332151e-005
1.002635e+000,-2.265965e-005,2.331899e-005
1.003154e+000,-2.500954e-005,2.332226e-005
1.003673e+000,-2.383459e-005,2.333235e-005
1.004192e+000,-1.863127e-005,2.333898e-005
1.004712e+000,-1.795987e-005,2.333607e-005
1.005231e+000,-2.064546e-005,2.333145e-005
1.005750e+000,-2.198825e-005,2.332548e-005
1.006269e+000,-2.198825e-005,2.332063e-005
1.006788e+000,-2.265965e-005,2.331722e-005
1.007308e+000,-2.232395e-005,2.331888e-005
1.007827e+000,-2.366674e-005,2.331954e-005
1.008346e+000,-2.601663e-005,2.332229e-005
1.008865e+000,-2.333104e-005,2.333284e-005
1.009385e+000,-1.963836e-005,2.334669e-005
1.009904e+000,-1.896696e-005,2.335888e-005
1.010423e+000,-1.963836e-005,2.337298e-005
1.010942e+000,-1.997406e-005,2.338998e-005
1.011462e+000,-1.829557e-005,2.340769e-005
1.011981e+000,-1.846342e-005,2.342255e-005
1.012500e+000,-2.114900e-005,2.343757e-005
1.013019e+000,-2.299535e-005,2.345699e-005
1.013538e+000,-2.114900e-005,2.347922e-005
1.014058e+000,-2.064546e-005,2.349551e-005
1.014577e+000,-2.098116e-005,2.350910e-005
1.015096e+000,-2.047761e-005,2.352313e-005
1.015615e+000,-1.997406e-005,2.353349e-005
1.016135e+000,-2.165255e-005,2.353817e-005
1.016654e+000,-2.165255e-005,2.354184e-005
1.017173e+000,-2.047761e-005,2.354433e-005
1.017692e+000,-2.114900e-005,2.353949e-005
1.018212e+000,-2.299535e-005,2.352699e-005
1.018731e+000,-2.433814e-005,2.351480e-005
1.019250e+000,-2.500954e-005,2.350708e-005
1.019769e+000,-2.467384e-005,2.349745e-005
1.020288e+000,-2.467384e-005,2.348079e-005
1.020808e+000,-2.299535e-005,2.345532e-005
1.021327e+000,-2.182040e-005,2.341938e-005
1.021846e+000,-2.232395e-005,2.338051e-005
1.022365e+000,-2.467384e-005,2.334897e-005
1.022885e+000,-2.534523e-005,2.332022e-005
1.023404e+000,-2.400244e-005,2.328969e-005
1.023923e+000,-2.165255e-005,2.325834e-005
1.024442e+000,-2.333104e-005,2.322321e-005
1.024962e+000,-2.601663e-005,2.319247e-005
1.025481e+000,-2.534523e-005,2.316763e-005
1.026000e+000,-2.165255e-005,2.313800e-005
1.026519e+000,-2.165255e-005,2.309495e-005
1.027038e+000,-2.433814e-005,2.304234e-005
1.027558e+000,-2.400244e-005,2.298764e-005
1.028077e+000,-2.098116e-005,2.293465e-005
1.028596e+000,-1.863127e-005,2.287913e-005
1.029115e+000,-1.896696e-005,2.282048e-005
1.029635e+000,-2.030976e-005,2.277184e-005
1.030154e+000,-2.165255e-005,2.273447e-005
1.030673e+000,-2.433814e-005,2.270174e-005
1.031192e+000,-2.500954e-005,2.267674e-005
1.031712e+000,-2.198825e-005,2.265322e-005
1.032231e+000,-1.762417e-005,2.262470e-005
1.032750e+000,-1.258869e-005,2.259465e-005
1.033269e+000,-5.874723e-006,2.256791e-005
1.033788e+000,-2.182040e-006,2.253584e-005
1.034308e+000,-5.035477e-007,2.250482e-005
1.034827e+000,-2.182040e-006,2.247435e-005
1.035346e+000,-3.524834e-006,2.244562e-005
1.035865e+000,-5.539025e-006,2.241874e-005
1.036385e+000,-7.553216e-006,2.239564e-005
1.036904e+000,-1.023880e-005,2.237752e-005
1.037423e+000,-1.292439e-005,2.236290e-005
1.037942e+000,-1.560998e-005,2.234462e-005
1.038462e+000,-1.963836e-005,2.232990e-005
1.038981e+000,-2.098116e-005,2.233110e-005
1.039500e+000,-1.930266e-005,2.233925e-005
1.040019e+000,-1.829557e-005,2.234597e-005
1.040538e+000,-1.795987e-005,2.234896e-005
1.041058e+000,-1.896696e-005,2.234951e-005
1.041577e+000,-2.182040e-005,2.235491e-005
1.042096e+000,-2.702373e-005,2.236620e-005
1.042615e+000,-3.004501e-005,2.238976e-005
1.043135e+000,-2.903792e-005,2.242128e-005
1.043654e+000,-2.836652e-005,2.245136e-005
1.044173e+000,-3.172351e-005,2.248164e-005
1.044692e+000,-3.373770e-005,2.252042e-005
1.045212e+000,-3.239490e-005,2.256395e-005
1.045731e+000,-3.038071e-005,2.260457e-005
1.046250e+000,-2.970932e-005,2.263785e-005
1.046769e+000,-3.205920e-005,2.266619e-005
1.047288e+000,-3.373770e-005,2.269795e-005
1.047808e+000,-3.373770e-005,2.273472e-005
1.048327e+000,-3.340200e-005,2.277198e-005
1.048846e+000,-3.256275e-005,2.281078e-005
1.049365e+000,-3.138781e-005,2.284979e-005
1.049885e+000,-3.138781e-005,2.288532e-005
1.050404e+000,-3.205920e-005,2.291898e-005
1.050923e+000,-3.239490e-005,2.295354e-005
1.051442e+000,-3.205920e-005,2.298644e-005
1.051962e+000,-3.172351e-005,2.301885e-005
1.052481e+000,-3.239490e-005,2.305155e-005
1.053000e+000,-3.239490e-005,2.308689e-005
1.053519e+000,-3.205920e-005,2.312013e-005
1.054038e+000,-3.239490e-005,2.315072e-005
1.054558e+000,-3.407340e-005,2.318050e-005
1.055077e+000,-3.508049e-005,2.321524e-005
1.055596e+000,-3.239490e-005,2.325185e-005
1.056115e+000,-3.105211e-005,2.328151e-005
1.056635e+000,-3.239490e-005,2.330848e-005
1.057154e+000,-3.373770e-005,2.333922e-005
1.057673e+000,-3.508049e-005,2.337605e-005
1.058192e+000,-3.508049e-005,2.341693e-005
1.058712e+000,-3.340200e-005,2.345441e-005
1.059231e+000,-3.138781e-005,2.348432e-005
1.059750e+000,-3.105211e-005,2.350587e-005
1.060269e+000,-3.038071e-005,2.352776e-005
1.060788e+000,-3.105211e-005,2.354782e-005
1.061308e+000,-3.038071e-005,2.356837e-005
1.061827e+000,-2.769513e-005,2.358295e-005
1.062346e+000,-2.568093e-005,2.359065e-005
1.062865e+000,-2.500954e-005,2.359709e-005
1.063385e+000,-2.534523e-005,2.360399e-005
1.063904e+000,-2.467384e-005,2.360966e-005
1.064423e+000,-2.249180e-005,2.361453e-005
1.064942e+000,-1.896696e-005,2.361864e-005
1.065462e+000,-1.829557e-005,2.361631e-005
1.065981e+000,-1.930266e-005,2.361229e-005
1.066500e+000,-1.628138e-005,2.360805e-005
1.067019e+000,-1.393149e-005,2.359843e-005
1.067538e+000,-1.393149e-005,2.358696e-005
1.068058e+000,-1.510643e-005,2.357355e-005
1.068577e+000,-1.527428e-005,2.356293e-005
1.069096e+000,-1.326009e-005,2.355442e-005
1.069615e+000,-1.359579e-005,2.354149e-005
1.070135e+000,-1.460288e-005,2.352894e-005
1.070654e+000,-1.577783e-005,2.352014e-005
1.071173e+000,-1.560998e-005,2.351380e-005
1.071692e+000,-1.191730e-005,2.350353e-005
1.072212e+000,-1.057450e-005,2.348573e-005
1.072731e+000,-1.309224e-005,2.346794e-005
1.073250e+000,-1.560998e-005,2.345345e-005
1.073769e+000,-1.628138e-005,2.344536e-005
1.074288e+000,-1.560998e-005,2.344117e-005
1.074808e+000,-1.577783e-005,2.343820e-005
1.075327e+000,-1.577783e-005,2.343546e-005
1.075846e+000,-1.560998e-005,2.342881e-005
1.076365e+000,-1.661708e-005,2.342008e-005
1.076885e+000,-1.527428e-005,2.341463e-005
1.077404e+000,-1.359579e-005,2.341417e-005
1.077923e+000,-1.493858e-005,2.341984e-005
1.078442e+000,-1.628138e-005,2.342897e-005
1.078962e+000,-1.762417e-005,2.344017e-005
1.079481e+000,-1.628138e-005,2.345358e-005
1.080000e+000,-1.628138e-005,2.346518e-005
1.080519e+000,-1.829557e-005,2.347637e-005
1.081038e+000,-1.963836e-005,2.348909e-005
1.081558e+000,-1.963836e-005,2.350088e-005
1.082077e+000,-1.963836e-005,2.351166e-005
1.082596e+000,-1.829557e-005,2.352170e-005
1.083115e+000,-1.762417e-005,2.352872e-005
1.083635e+000,-1.762417e-005,2.353345e-005
1.084154e+000,-1.712062e-005,2.353687e-005
1.084673e+000,-1.695277e-005,2.353810e-005
1.085192e+000,-1.762417e-005,2.353601e-005
1.085712e+000,-2.030976e-005,2.353029e-005
1.086231e+000,-2.098116e-005,2.352515e-005
1.086750e+000,-2.165255e-005,2.351696e-005
1.087269e+000,-2.098116e-005,2.350620e-005
1.087788e+000,-1.896696e-005,2.349008e-005
1.088308e+000,-1.762417e-005,2.346693e-005
1.088827e+000,-2.064546e-005,2.343418e-005
1.089346e+000,-2.333104e-005,2.340457e-005
1.089865e+000,-2.064546e-005,2.338403e-005
1.090385e+000,-2.030976e-005,2.335534e-005
1.090904e+000,-2.198825e-005,2.332200e-005
1.091423e+000,-2.232395e-005,2.329480e-005
1.091942e+000,-2.366674e-005,2.326724e-005
1.092462e+000,-2.534523e-005,2.324139e-005
1.092981e+000,-2.568093e-005,2.321507e-005
1.093500e+000,-2.568093e-005,2.317608e-005
1.094019e+000,-2.232395e-005,2.312914e-005
1.094538e+000,-2.098116e-005,2.308854e-005
1.095058e+000,-2.131685e-005,2.305239e-005
1.095577e+000,-2.165255e-005,2.301947e-005
1.096096e+000,-2.299535e-005,2.298922e-005
1.096615e+000,-2.198825e-005,2.295312e-005
1.097135e+000,-2.030976e-005,2.290510e-005
1.097654e+000,-1.930266e-005,2.285435e-005
1.098173e+000,-2.098116e-005,2.280866e-005
1.098692e+000,-2.299535e-005,2.276483e-005
1.099212e+000,-2.232395e-005,2.272028e-005
1.099731e+000,-2.098116e-005,2.267721e-005
1.100250e+000,-2.030976e-005,2.264414e-005
1.100769e+000,-2.165255e-005,2.261686e-005
1.101288e+000,-2.232395e-005,2.259214e-005
1.101808e+000,-2.131685e-005,2.257022e-005
1.102327e+000,-2.232395e-005,2.254863e-005
1.102846e+000,-2.232395e-005,2.253090e-005
1.103365e+000,-2.165255e-005,2.251936e-005
1.103885e+000,-2.366674e-005,2.251551e-005
1.104404e+000,-2.366674e-005,2.252476e-005
1.104923e+000,-2.232395e-005,2.253627e-005
1.105442e+000,-2.198825e-005,2.253696e-005
1.105962e+000,-2.265965e-005,2.253040e-005
1.106481e+000,-2.165255e-005,2.252751e-005
1.107000e+000,-1.963836e-005,2.252684e-005
1.107519e+000,-1.896696e-005,2.252432e-005
1.108038e+000,-1.997406e-005,2.251929e-005
1.108558e+000,-2.030976e-005,2.251606e-005
1.109077e+000,-2.030976e-005,2.251606e-005
1.109596e+000,-1.896696e-005,2.251908e-005
1.110115e+000,-1.963836e-005,2.252419e-005
1.110635e+000,-2.165255e-005,2.253075e-005
1.111154e+000,-2.299535e-005,2.254113e-005
1.111673e+000,-2.232395e-005,2.255699e-005
1.112192e+000,-2.165255e-005,2.257225e-005
1.112712e+000,-2.165255e-005,2.258634e-005
1.113231e+000,-2.030976e-005,2.259941e-005
1.113750e+000,-2.030976e-005,2.260765e-005
1.114269e+000,-1.795987e-005,2.261725e-005
1.114788e+000,-1.896696e-005,2.262358e-005
1.115308e+000,-2.165255e-005,2.263243e-005
1.115827e+000,-2.232395e-005,2.264707e-005
1.116346e+000,-1.963836e-005,2.266378e-005
1.116865e+000,-1.829557e-005,2.267696e-005
1.117385e+000,-2.030976e-005,2.268811e-005
1.117904e+000,-2.299535e-005,2.270013e-005
1.118423e+000,-2.265965e-005,2.271587e-005
1.118942e+000,-2.165255e-005,2.273005e-005
1.119462e+000,-2.064546e-005,2.274082e-005
1.119981e+000,-1.963836e-005,2.274664e-005
1.120500e+000,-2.030976e-005,2.274541e-005
1.121019e+000,-2.198825e-005,2.274603e-005
1.121538e+000,-2.232395e-005,2.275169e-005
1.122058e+000,-2.299535e-005,2.275743e-005
1.122577e+000,-2.366674e-005,2.276685e-005
1.123096e+000,-2.433814e-005,2.277600e-005
1.123615e+000,-2.299535e-005,2.278389e-005
1.124135e+000,-2.165255e-005,2.278920e-005
1.124654e+000,-2.098116e-005,2.279417e-005
1.125173e+000,-2.098116e-005,2.279842e-005
1.125692e+000,-2.165255e-005,2.280433e-005
1.126212e+000,-2.299535e-005,2.281044e-005
1.126731e+000,-2.299535e-005,2.281785e-005
1.127250e+000,-2.165255e-005,2.282669e-005
1.127769e+000,-1.963836e-005,2.283223e-005
1.128288e+000,-1.846342e-005,2.283282e-005
1.128808e+000,-2.030976e-005,2.283254e-005
1.129327e+000,-2.098116e-005,2.283494e-005
1.129846e+000,-1.493858e-005,2.283682e-005
1.130365e+000,-8.224612e-006,2.282942e-005
1.130885e+000,-6.881819e-006,2.281781e-005
1.131404e+000,-7.888914e-006,2.280358e-005
1.131923e+000,-7.553216e-006,2.278760e-005
1.132442e+000,-7.888914e-006,2.277261e-005
1.132962e+000,-7.553216e-006,2.275844e-005
1.133481e+000,-9.231709e-006,2.273688e-005
1.134000e+000,-1.225299e-005,2.271293e-005
1.134519e+000,-1.426719e-005,2.268961e-005
1.135038e+000,-1.560998e-005,2.267027e-005
1.135558e+000,-1.695277e-005,2.265719e-005
1.136077e+000,-1.896696e-005,2.264611e-005
1.136596e+000,-2.165255e-005,2.263391e-005
1.137115e+000,-2.349889e-005,2.262672e-005
1.137635e+000,-2.433814e-005,2.262779e-005
1.138154e+000,-2.568093e-005,2.263347e-005
1.138673e+000,-2.836652e-005,2.264353e-005
1.139192e+000,-2.870222e-005,2.266058e-005
1.139712e+000,-2.635233e-005,2.267752e-005
1.140231e+000,-2.635233e-005,2.268786e-005
1.140750e+000,-3.004501e-005,2.269474e-005
1.141269e+000,-3.172351e-005,2.271150e-005
1.141788e+000,-3.121996e-005,2.273542e-005
1.142308e+000,-3.306630e-005,2.275650e-005
1.142827e+000,-3.743038e-005,2.277863e-005
1.143346e+000,-4.246586e-005,2.281244e-005
1.143865e+000,-4.380865e-005,2.286567e-005
1.144385e+000,-4.280156e-005,2.292737e-005
1.144904e+000,-4.213016e-005,2.298842e-005
1.145423e+000,-4.179446e-005,2.304741e-005
1.145942e+000,-3.978027e-005,2.310158e-005
1.146462e+000,-3.793393e-005,2.314754e-005
1.146981e+000,-3.642328e-005,2.318768e-005
1.147500e+000,-3.373770e-005,2.322057e-005
1.148019e+000,-3.172351e-005,2.324715e-005
1.148538e+000,-3.038071e-005,2.327117e-005
1.149058e+000,-2.970932e-005,2.329013e-005
1.149577e+000,-2.903792e-005,2.330308e-005
1.150096e+000,-2.920577e-005,2.331571e-005
1.150615e+000,-2.970932e-005,2.333218e-005
1.151135e+000,-2.903792e-005,2.335028e-005
1.151654e+000,-2.702373e-005,2.336427e-005
1.152173e+000,-2.500954e-005,2.337184e-005
1.152692e+000,-2.500954e-005,2.337816e-005
1.153212e+000,-2.467384e-005,2.338852e-005
1.153731e+000,-2.366674e-005,2.339844e-005
1.154250e+000,-2.299535e-005,2.340619e-005
1.154769e+000,-2.366674e-005,2.341225e-005
1.155288e+000,-2.568093e-005,2.341757e-005
1.155808e+000,-2.433814e-005,2.342730e-005
1.156327e+000,-1.963836e-005,2.343498e-005
1.156846e+000,-1.712062e-005,2.343129e-005
1.157365e+000,-1.829557e-005,2.342218e-005
1.157885e+000,-1.896696e-005,2.341750e-005
1.158404e+000,-1.728847e-005,2.341516e-005
1.158923e+000,-1.628138e-005,2.340761e-005
1.159442e+000,-1.795987e-005,2.339590e-005
1.159962e+000,-1.913481e-005,2.338674e-005
1.160481e+000,-1.963836e-005,2.337881e-005
1.161000e+000,-1.963836e-005,2.337106e-005
1.161519e+000,-1.913481e-005,2.336330e-005
1.162038e+000,-1.762417e-005,2.335807e-005
1.162558e+000,-1.527428e-005,2.335293e-005
1.163077e+000,-1.426719e-005,2.334585e-005
1.163596e+000,-1.493858e-005,2.333624e-005
1.164115e+000,-1.510643e-005,2.332657e-005
1.164635e+000,-1.443504e-005,2.331453e-005
1.165154e+000,-1.493858e-005,2.329704e-005
1.165673e+000,-1.577783e-005,2.327908e-005
1.166192e+000,-1.628138e-005,2.326300e-005
1.166712e+000,-1.628138e-005,2.324537e-005
1.167231e+000,-1.628138e-005,2.322456e-005
1.167750e+000,-1.628138e-005,2.320454e-005
1.168269e+000,-1.628138e-005,2.318608e-005
1.168788e+000,-1.661708e-005,2.316522e-005
1.169308e+000,-1.644922e-005,2.314723e-005
1.169827e+000,-1.661708e-005,2.313240e-005
1.170346e+000,-1.695277e-005,2.312105e-005
1.170865e+000,-1.829557e-005,2.311289e-005
1.171385e+000,-1.896696e-005,2.310416e-005
1.171904e+000,-2.030976e-005,2.309067e-005
1.172423e+000,-1.896696e-005,2.308032e-005
1.172942e+000,-1.795987e-005,2.307200e-005
1.173462e+000,-1.795987e-005,2.306236e-005
1.173981e+000,-1.762417e-005,2.305306e-005
1.174500e+000,-1.846342e-005,2.304592e-005
1.175019e+000,-1.896696e-005,2.304015e-005
1.175538e+000,-1.863127e-005,2.303111e-005
1.176058e+000,-1.930266e-005,2.301701e-005
1.176577e+000,-1.795987e-005,2.300671e-005
1.177096e+000,-1.812772e-005,2.299669e-005
1.177615e+000,-2.064546e-005,2.299411e-005
1.178135e+000,-2.299535e-005,2.300799e-005
1.178654e+000,-2.316319e-005,2.303141e-005
1.179173e+000,-2.299535e-005,2.305561e-005
1.179692e+000,-2.165255e-005,2.307944e-005
1.180212e+000,-2.265965e-005,2.310050e-005
1.180731e+000,-2.500954e-005,2.312344e-005
1.181250e+000,-2.433814e-005,2.315118e-005
1.181769e+000,-2.366674e-005,2.317720e-005
1.182288e+000,-2.702373e-005,2.320077e-005
1.182808e+000,-2.635233e-005,2.322992e-005
1.183327e+000,-2.568093e-005,2.325674e-005
1.183846e+000,-2.635233e-005,2.328267e-005
1.184365e+000,-2.635233e-005,2.330898e-005
1.184885e+000,-2.433814e-005,2.333209e-005
1.185404e+000,-2.232395e-005,2.334715e-005
1.185923e+000,-2.064546e-005,2.335654e-005
1.186442e+000,-2.030976e-005,2.335950e-005
1.186962e+000,-2.232395e-005,2.335889e-005
1.187481e+000,-2.433814e-005,2.335955e-005
1.188000e+000,-2.333104e-005,2.336098e-005
1.188519e+000,-2.299535e-005,2.336028e-005
1.189038e+000,-2.265965e-005,2.336028e-005
1.189558e+000,-2.467384e-005,2.335820e-005
1.190077e+000,-2.568093e-005,2.335439e-005
1.190596e+000,-2.232395e-005,2.334622e-005
1.191115e+000,-1.980621e-005,2.332910e-005
1.191635e+000,-2.064546e-005,2.330313e-005
1.192154e+000,-2.165255e-005,2.327236e-005
1.192673e+000,-2.249180e-005,2.323831e-005
1.193192e+000,-2.232395e-005,2.320586e-005
1.193712e+000,-2.165255e-005,2.317037e-005
1.194231e+000,-1.963836e-005,2.312035e-005
1.194750e+000,-1.795987e-005,2.305130e-005
1.195269e+000,-1.829557e-005,2.297378e-005
1.195788e+000,-1.963836e-005,2.289096e-005
1.196308e+000,-1.963836e-005,2.281300e-005
1.196827e+000,-1.863127e-005,2.274030e-005
1.197346e+000,-1.762417e-005,2.266145e-005
1.197865e+000,-1.863127e-005,2.258754e-005
1.198385e+000,-1.896696e-005,2.252938e-005
1.198904e+000,-2.030976e-005,2.247953e-005
1.199423e+000,-2.114900e-005,2.243377e-005
1.199942e+000,-1.896696e-005,2.238836e-005
1.200462e+000,-1.795987e-005,2.234228e-005
1.200981e+000,-1.896696e-005,2.229552e-005
1.201500e+000,-1.863127e-005,2.225705e-005
1.202019e+000,-1.863127e-005,2.222007e-005
1.202538e+000,-1.930266e-005,2.219020e-005
1.203058e+000,-2.030976e-005,2.217172e-005
1.203577e+000,-2.030976e-005,2.216173e-005
1.204096e+000,-2.030976e-005,2.215770e-005
1.204615e+000,-2.165255e-005,2.215573e-005
1.205135e+000,-2.265965e-005,2.215708e-005
1.205654e+000,-2.098116e-005,2.216369e-005
1.206173e+000,-1.728847e-005,2.216746e-005
1.206692e+000,-1.158160e-005,2.216549e-005
1.207212e+000,-6.881819e-006,2.215665e-005
1.207731e+000,-4.867628e-006,2.214258e-005
1.208250e+000,-7.888914e-006,2.212798e-005
1.208769e+000,-8.896010e-006,2.211740e-005
1.209288e+000,-7.553216e-006,2.210966e-005
1.209808e+000,-6.546120e-006,2.210365e-005
1.210327e+000,-7.553216e-006,2.209936e-005
1.210846e+000,-9.567407e-006,2.209459e-005
1.211365e+000,-1.376364e-005,2.208840e-005
1.211885e+000,-1.695277e-005,2.208818e-005
1.212404e+000,-1.846342e-005,2.209384e-005
1.212923e+000,-1.829557e-005,2.210118e-005
1.213442e+000,-1.896696e-005,2.210571e-005
1.213962e+000,-2.165255e-005,2.211189e-005
1.214481e+000,-2.433814e-005,2.212344e-005
1.215000e+000,-2.702373e-005,2.213957e-005
1.215519e+000,-3.105211e-005,2.216088e-005
1.216038e+000,-3.373770e-005,2.219562e-005
1.216558e+000,-3.642328e-005,2.223647e-005
1.217077e+000,-3.709468e-005,2.228221e-005
1.217596e+000,-3.709468e-005,2.233016e-005
1.218115e+000,-3.978027e-005,2.238182e-005
1.218635e+000,-4.380865e-005,2.244292e-005
1.219154e+000,-4.515145e-005,2.251703e-005
1.219673e+000,-4.213016e-005,2.259440e-005
1.220192e+000,-3.994812e-005,2.266112e-005
1.220712e+000,-3.910887e-005,2.272000e-005
1.221231e+000,-3.843748e-005,2.277702e-005
1.221750e+000,-3.575189e-005,2.283277e-005
1.222269e+000,-3.407340e-005,2.287982e-005
1.222788e+000,-3.373770e-005,2.291733e-005
1.223308e+000,-3.239490e-005,2.295484e-005
1.223827e+000,-3.138781e-005,2.299177e-005
1.224346e+000,-3.105211e-005,2.302620e-005
1.224865e+000,-3.138781e-005,2.305569e-005
1.225385e+000,-3.172351e-005,2.308608e-005
1.225904e+000,-2.987716e-005,2.311843e-005
1.226423e+000,-2.769513e-005,2.314238e-005
1.226942e+000,-2.769513e-005,2.315511e-005
1.227462e+000,-2.584878e-005,2.316850e-005
1.227981e+000,-2.500954e-005,2.318233e-005
1.228500e+000,-2.500954e-005,2.319367e-005
1.229019e+000,-2.568093e-005,2.320557e-005
1.229538e+000,-2.417029e-005,2.322012e-005
1.230058e+000,-2.299535e-005,2.322780e-005
1.230577e+000,-2.114900e-005,2.323177e-005
1.231096e+000,-2.030976e-005,2.323333e-005
1.231615e+000,-2.030976e-005,2.323080e-005
1.232135e+000,-1.896696e-005,2.323080e-005
1.232654e+000,-1.644922e-005,2.322964e-005
1.233173e+000,-1.560998e-005,2.322329e-005
1.233692e+000,-1.426719e-005,2.321781e-005
1.234212e+000,-1.426719e-005,2.321194e-005
1.234731e+000,-1.594568e-005,2.320258e-005
1.235250e+000,-1.560998e-005,2.319549e-005
1.235769e+000,-1.560998e-005,2.318540e-005
1.236288e+000,-1.628138e-005,2.317261e-005
1.236808e+000,-1.762417e-005,2.316146e-005
1.237327e+000,-1.829557e-005,2.315436e-005
1.237846e+000,-1.728847e-005,2.314899e-005
1.238365e+000,-1.594568e-005,2.314264e-005
1.238885e+000,-1.594568e-005,2.313733e-005
1.239404e+000,-1.762417e-005,2.313201e-005
1.239923e+000,-1.896696e-005,2.312864e-005
1.240442e+000,-1.963836e-005,2.312502e-005
1.240962e+000,-2.215610e-005,2.312382e-005
1.241481e+000,-2.333104e-005,2.312854e-005
1.242000e+000,-2.165255e-005,2.313416e-005
1.242519e+000,-1.829557e-005,2.313283e-005
1.243038e+000,-1.863127e-005,2.312548e-005
1.243558e+000,-2.030976e-005,2.312130e-005
1.244077e+000,-1.829557e-005,2.312130e-005
1.244596e+000,-1.661708e-005,2.311257e-005
1.245115e+000,-1.695277e-005,2.310120e-005
1.245635e+000,-1.712062e-005,2.309238e-005
1.246154e+000,-1.628138e-005,2.308107e-005
1.246673e+000,-1.829557e-005,2.306092e-005
1.247192e+000,-1.896696e-005,2.303973e-005
1.247712e+000,-1.963836e-005,2.302620e-005
1.248231e+000,-2.098116e-005,2.301537e-005
1.248750e+000,-2.064546e-005,2.300226e-005
1.249269e+000,-1.896696e-005,2.299133e-005
1.249788e+000,-2.030976e-005,2.298298e-005
1.250308e+000,-2.098116e-005,2.298173e-005
1.250827e+000,-2.165255e-005,2.297772e-005
1.251346e+000,-2.232395e-005,2.297063e-005
1.251865e+000,-2.333104e-005,2.297197e-005
1.252385e+000,-2.299535e-005,2.297793e-005
1.252904e+000,-2.098116e-005,2.297863e-005
1.253423e+000,-2.064546e-005,2.297025e-005
1.253942e+000,-2.265965e-005,2.296382e-005
1.254462e+000,-2.165255e-005,2.297135e-005
1.254981e+000,-2.182040e-005,2.297797e-005
1.255500e+000,-2.366674e-005,2.298023e-005
1.256019e+000,-2.433814e-005,2.298370e-005
1.256538e+000,-2.366674e-005,2.298862e-005
1.257058e+000,-2.383459e-005,2.299073e-005
1.257577e+000,-2.450599e-005,2.299388e-005
1.258096e+000,-2.400244e-005,2.299571e-005
1.258615e+000,-2.232395e-005,2.299115e-005
1.259135e+000,-2.064546e-005,2.298907e-005
1.259654e+000,-1.896696e-005,2.299091e-005
1.260173e+000,-1.829557e-005,2.299091e-005
1.260692e+000,-1.930266e-005,2.298860e-005
1.261212e+000,-2.098116e-005,2.298741e-005
1.261731e+000,-2.165255e-005,2.299218e-005
1.262250e+000,-2.064546e-005,2.299796e-005
1.262769e+000,-1.997406e-005,2.299701e-005
1.263288e+000,-1.980621e-005,2.299114e-005
1.263808e+000,-1.963836e-005,2.298866e-005
1.264327e+000,-1.896696e-005,2.298682e-005
1.264846e+000,-1.863127e-005,2.298318e-005
1.265365e+000,-1.896696e-005,2.297992e-005
1.265885e+000,-1.829557e-005,2.297814e-005
1.266404e+000,-1.846342e-005,2.297207e-005
1.266923e+000,-1.896696e-005,2.296629e-005
1.267442e+000,-1.846342e-005,2.296359e-005
1.267962e+000,-1.728847e-005,2.295877e-005
1.268481e+000,-1.695277e-005,2.294836e-005
1.269000e+000,-1.695277e-005,2.293455e-005
1.269519e+000,-1.695277e-005,2.291922e-005
1.270038e+000,-1.896696e-005,2.290464e-005
1.270558e+000,-2.131685e-005,2.289333e-005
1.271077e+000,-2.232395e-005,2.288995e-005
1.271596e+000,-2.299535e-005,2.289096e-005
1.272115e+000,-2.198825e-005,2.289234e-005
1.272635e+000,-1.963836e-005,2.288665e-005
1.273154e+000,-1.829557e-005,2.287499e-005
1.273673e+000,-1.930266e-005,2.286402e-005
1.274192e+000,-2.165255e-005,2.285964e-005
1.274712e+000,-2.333104e-005,2.285621e-005
1.275231e+000,-2.030976e-005,2.285018e-005
1.275750e+000,-1.762417e-005,2.283972e-005
1.276269e+000,-1.896696e-005,2.283252e-005
1.276788e+000,-2.182040e-005,2.282755e-005
1.277308e+000,-2.299535e-005,2.282226e-005
1.277827e+000,-2.366674e-005,2.282010e-005
1.278346e+000,-2.366674e-005,2.282556e-005
1.278865e+000,-2.165255e-005,2.283526e-005
1.279385e+000,-1.963836e-005,2.284023e-005
1.279904e+000,-2.030976e-005,2.283901e-005
1.280423e+000,-2.333104e-005,2.283644e-005
1.280942e+000,-2.568093e-005,2.283426e-005
1.281462e+000,-2.601663e-005,2.283581e-005
1.281981e+000,-2.635233e-005,2.284461e-005
1.282500e+000,-2.635233e-005,2.286206e-005
1.283019e+000,-2.366674e-005,2.288642e-005
1.283538e+000,-2.165255e-005,2.291028e-005
1.284058e+000,-2.098116e-005,2.293133e-005
1.284577e+000,-1.896696e-005,2.295126e-005
1.285096e+000,-1.829557e-005,2.296734e-005
1.285615e+000,-2.098116e-005,2.298192e-005
1.286135e+000,-2.165255e-005,2.300044e-005
1.286654e+000,-2.232395e-005,2.301904e-005
1.287173e+000,-2.433814e-005,2.303680e-005
1.287692e+000,-2.316319e-005,2.305599e-005
1.288212e+000,-2.165255e-005,2.306919e-005
1.288731e+000,-2.198825e-005,2.307293e-005
1.289250e+000,-2.198825e-005,2.307488e-005
1.289769e+000,-1.661708e-005,2.307988e-005
1.290288e+000,-1.023880e-005,2.307724e-005
1.290808e+000,-4.867628e-006,2.306743e-005
1.291327e+000,-2.853437e-006,2.305228e-005
1.291846e+000,-3.860533e-006,2.303117e-005
1.292365e+000,-4.531929e-006,2.299886e-005
1.292885e+000,-6.210422e-006,2.295895e-005
1.293404e+000,-6.881819e-006,2.292249e-005
1.293923e+000,-7.553216e-006,2.288812e-005
1.294442e+000,-9.903105e-006,2.284497e-005
1.294962e+000,-1.292439e-005,2.279759e-005
1.295481e+000,-1.510643e-005,2.275732e-005
1.296000e+000,-1.863127e-005,2.272556e-005
1.296519e+000,-2.030976e-005,2.270105e-005
1.297038e+000,-1.963836e-005,2.267286e-005
1.297558e+000,-2.165255e-005,2.263833e-005
1.298077e+000,-2.433814e-005,2.260757e-005
1.298596e+000,-2.568093e-005,2.258349e-005
1.299115e+000,-2.601663e-005,2.256504e-005
1.299635e+000,-2.534523e-005,2.255083e-005
1.300154e+000,-2.635233e-005,2.253502e-005
1.300673e+000,-2.970932e-005,2.251964e-005
1.301192e+000,-3.004501e-005,2.251194e-005
1.301712e+000,-3.038071e-005,2.250616e-005
1.302231e+000,-2.970932e-005,2.250231e-005
1.302750e+000,-2.970932e-005,2.249460e-005
1.303269e+000,-2.970932e-005,2.248689e-005
1.303788e+000,-2.937362e-005,2.248018e-005
1.304308e+000,-2.836652e-005,2.247155e-005
1.304827e+000,-3.054856e-005,2.245506e-005
1.305346e+000,-3.323415e-005,2.244129e-005
1.305865e+000,-3.306630e-005,2.244384e-005
1.306385e+000,-2.903792e-005,2.244982e-005
1.306904e+000,-2.702373e-005,2.244027e-005
1.307423e+000,-2.903792e-005,2.242137e-005
1.307942e+000,-3.138781e-005,2.240340e-005
1.308462e+000,-3.105211e-005,2.239201e-005
1.308981e+000,-3.172351e-005,2.238497e-005
1.309500e+000,-3.038071e-005,2.238596e-005
1.310019e+000,-2.836652e-005,2.238404e-005
1.310538e+000,-2.735943e-005,2.237855e-005
1.311058e+000,-2.937362e-005,2.236852e-005
1.311577e+000,-3.121996e-005,2.236573e-005
1.312096e+000,-3.054856e-005,2.237538e-005
1.312615e+000,-2.970932e-005,2.238809e-005
1.313135e+000,-3.105211e-005,2.240003e-005
1.313654e+000,-3.121996e-005,2.241496e-005
1.314173e+000,-3.407340e-005,2.243192e-005
1.314692e+000,-3.508049e-005,2.246226e-005
1.315212e+000,-3.306630e-005,2.250253e-005
1.315731e+000,-3.038071e-005,2.253754e-005
1.316250e+000,-2.903792e-005,2.256292e-005
1.316769e+000,-3.038071e-005,2.258953e-005
1.317288e+000,-3.189136e-005,2.262305e-005
1.317808e+000,-3.340200e-005,2.266084e-005
1.318327e+000,-3.440909e-005,2.270151e-005
1.318846e+000,-3.575189e-005,2.274500e-005
1.319365e+000,-3.675899e-005,2.279533e-005
1.319885e+000,-3.709468e-005,2.284845e-005
1.320404e+000,-3.608759e-005,2.290129e-005
1.320923e+000,-3.440909e-005,2.294905e-005
1.321442e+000,-3.306630e-005,2.299161e-005
1.321962e+000,-3.054856e-005,2.303458e-005
1.322481e+000,-2.836652e-005,2.307162e-005
1.323000e+000,-2.719158e-005,2.310013e-005
1.323519e+000,-2.836652e-005,2.312243e-005
1.324038e+000,-2.568093e-005,2.314667e-005
1.324558e+000,-2.366674e-005,2.316534e-005
1.325077e+000,-2.165255e-005,2.317930e-005
1.325596e+000,-2.131685e-005,2.318916e-005
1.326115e+000,-2.030976e-005,2.319860e-005
1.326635e+000,-1.762417e-005,2.320471e-005
1.327154e+000,-1.443504e-005,2.320817e-005
1.327673e+000,-1.359579e-005,2.320923e-005
1.328192e+000,-1.393149e-005,2.320751e-005
1.328712e+000,-1.544213e-005,2.320433e-005
1.329231e+000,-1.426719e-005,2.320110e-005
1.329750e+000,-1.292439e-005,2.319834e-005
1.330269e+000,-1.393149e-005,2.319395e-005
1.330788e+000,-1.460288e-005,2.318764e-005
1.331308e+000,-1.225299e-005,2.317991e-005
1.331827e+000,-1.309224e-005,2.316935e-005
1.332346e+000,-1.628138e-005,2.315974e-005
1.332865e+000,-1.695277e-005,2.315661e-005
1.333385e+000,-1.560998e-005,2.315557e-005
1.333904e+000,-1.527428e-005,2.315256e-005
1.334423e+000,-1.426719e-005,2.314987e-005
1.334942e+000,-1.376364e-005,2.314611e-005
1.335462e+000,-1.376364e-005,2.314067e-005
1.335981e+000,-1.426719e-005,2.313065e-005
1.336500e+000,-1.426719e-005,2.312001e-005
1.337019e+000,-1.493858e-005,2.310808e-005
1.337538e+000,-1.359579e-005,2.309831e-005
1.338058e+000,-1.292439e-005,2.309044e-005
1.338577e+000,-1.359579e-005,2.308397e-005
1.339096e+000,-1.174945e-005,2.307310e-005
1.339615e+000,-9.903105e-006,2.305479e-005
1.340135e+000,-1.225299e-005,2.303999e-005
1.340654e+000,-1.527428e-005,2.302815e-005
1.341173e+000,-1.695277e-005,2.301685e-005
1.341692e+000,-1.493858e-005,2.300733e-005
1.342212e+000,-1.493858e-005,2.299210e-005
1.342731e+000,-1.560998e-005,2.297313e-005
1.343250e+000,-1.460288e-005,2.295431e-005
1.343769e+000,-1.359579e-005,2.293409e-005
1.344288e+000,-1.493858e-005,2.291988e-005
1.344808e+000,-1.695277e-005,2.291003e-005
1.345327e+000,-1.695277e-005,2.290245e-005
1.345846e+000,-1.762417e-005,2.289422e-005
1.346365e+000,-1.930266e-005,2.288431e-005
1.346885e+000,-2.030976e-005,2.287927e-005
1.347404e+000,-1.829557e-005,2.287927e-005
1.347923e+000,-1.628138e-005,2.287755e-005
1.348442e+000,-1.762417e-005,2.286959e-005
1.348962e+000,-1.795987e-005,2.285967e-005
1.349481e+000,-1.829557e-005,2.285167e-005
1.350000e+000,-2.030976e-005,2.284688e-005
1.350519e+000,-2.131685e-005,2.284688e-005
1.351038e+000,-2.098116e-005,2.284622e-005
1.351558e+000,-2.030976e-005,2.284357e-005
1.352077e+000,-1.930266e-005,2.284167e-005
1.352596e+000,-1.997406e-005,2.283594e-005
1.353115e+000,-2.165255e-005,2.283142e-005
1.353635e+000,-2.333104e-005,2.283142e-005
1.354154e+000,-2.366674e-005,2.283070e-005
1.354673e+000,-2.333104e-005,2.283070e-005
1.355192e+000,-2.333104e-005,2.283279e-005
1.355712e+000,-2.366674e-005,2.283556e-005
1.356231e+000,-2.198825e-005,2.283769e-005
1.356750e+000,-2.232395e-005,2.283835e-005
1.357269e+000,-2.299535e-005,2.284348e-005
1.357788e+000,-2.500954e-005,2.285117e-005
1.358308e+000,-2.534523e-005,2.286148e-005
1.358827e+000,-2.366674e-005,2.287193e-005
1.359346e+000,-2.433814e-005,2.287864e-005
1.359865e+000,-2.500954e-005,2.288920e-005
1.360385e+000,-2.131685e-005,2.290009e-005
1.360904e+000,-1.896696e-005,2.289944e-005
1.361423e+000,-2.064546e-005,2.289176e-005
1.361942e+000,-2.198825e-005,2.288849e-005
1.362462e+000,-2.232395e-005,2.288915e-005
1.362981e+000,-2.215610e-005,2.289049e-005
1.363500e+000,-2.131685e-005,2.289405e-005
1.364019e+000,-2.030976e-005,2.289595e-005
1.364538e+000,-1.997406e-005,2.290004e-005
1.365058e+000,-2.232395e-005,2.290182e-005
1.365577e+000,-2.500954e-005,2.290316e-005
1.366096e+000,-2.500954e-005,2.290893e-005
1.366615e+000,-2.299535e-005,2.291980e-005
1.367135e+000,-2.198825e-005,2.292861e-005
1.367654e+000,-2.030976e-005,2.293182e-005
1.368173e+000,-1.997406e-005,2.292655e-005
1.368692e+000,-2.098116e-005,2.292136e-005
1.369212e+000,-2.366674e-005,2.292006e-005
1.369731e+000,-2.433814e-005,2.292613e-005
1.370250e+000,-2.299535e-005,2.293550e-005
1.370769e+000,-2.182040e-005,2.294077e-005
1.371288e+000,-2.433814e-005,2.294044e-005
1.371808e+000,-2.433814e-005,2.294470e-005
1.372327e+000,-2.299535e-005,2.294758e-005
1.372846e+000,-2.232395e-005,2.294616e-005
1.373365e+000,-2.400244e-005,2.294190e-005
1.373885e+000,-2.467384e-005,2.294404e-005
1.374404e+000,-2.299535e-005,2.295038e-005
1.374923e+000,-2.198825e-005,2.295440e-005
1.375442e+000,-2.299535e-005,2.295636e-005
1.375962e+000,-2.316319e-005,2.295907e-005
1.376481e+000,-2.198825e-005,2.295942e-005
1.377000e+000,-2.349889e-005,2.295737e-005
1.377519e+000,-2.635233e-005,2.296115e-005
1.378038e+000,-2.702373e-005,2.297512e-005
1.378558e+000,-2.500954e-005,2.299273e-005
1.379077e+000,-2.366674e-005,2.300236e-005
1.379596e+000,-2.165255e-005,2.300778e-005
1.380115e+000,-2.198825e-005,2.301887e-005
1.380635e+000,-2.265965e-005,2.303764e-005
1.381154e+000,-2.198825e-005,2.305867e-005
1.381673e+000,-2.299535e-005,2.307765e-005
1.382192e+000,-2.299535e-005,2.309889e-005
1.382712e+000,-2.333104e-005,2.311987e-005
1.383231e+000,-2.433814e-005,2.314177e-005
1.383750e+000,-2.467384e-005,2.316454e-005
1.384269e+000,-2.433814e-005,2.318511e-005
1.384788e+000,-2.383459e-005,2.320254e-005
1.385308e+000,-2.232395e-005,2.321707e-005
1.385827e+000,-2.232395e-005,2.322651e-005
1.386346e+000,-2.249180e-005,2.323271e-005
1.386865e+000,-2.098116e-005,2.323437e-005
1.387385e+000,-1.913481e-005,2.322936e-005
1.387904e+000,-2.064546e-005,2.321924e-005
1.388423e+000,-2.249180e-005,2.320879e-005
1.388942e+000,-2.316319e-005,2.319540e-005
1.389462e+000,-2.265965e-005,2.318253e-005
1.389981e+000,-2.064546e-005,2.317441e-005
1.390500e+000,-2.064546e-005,2.316238e-005
1.391019e+000,-2.265965e-005,2.314098e-005
1.391538e+000,-2.232395e-005,2.311883e-005
1.392058e+000,-2.165255e-005,2.309740e-005
1.392577e+000,-2.198825e-005,2.306928e-005
1.393096e+000,-2.299535e-005,2.302790e-005
1.393615e+000,-2.299535e-005,2.297029e-005
1.394135e+000,-2.433814e-005,2.290728e-005
1.394654e+000,-2.114900e-005,2.285096e-005
1.395173e+000,-1.997406e-005,2.279048e-005
1.395692e+000,-2.165255e-005,2.272892e-005
1.396212e+000,-2.299535e-005,2.267794e-005
1.396731e+000,-2.333104e-005,2.263618e-005
1.397250e+000,-2.232395e-005,2.260022e-005
1.397769e+000,-2.299535e-005,2.257077e-005
1.398288e+000,-2.232395e-005,2.254876e-005
1.398808e+000,-1.963836e-005,2.252918e-005
1.399327e+000,-1.896696e-005,2.250624e-005
1.399846e+000,-2.114900e-005,2.248390e-005
1.400365e+000,-2.232395e-005,2.246513e-005
1.400885e+000,-2.064546e-005,2.244734e-005
1.401404e+000,-2.030976e-005,2.242803e-005
1.401923e+000,-2.047761e-005,2.241329e-005
1.402442e+000,-2.198825e-005,2.240373e-005
1.402962e+000,-2.299535e-005,2.239714e-005
1.403481e+000,-2.165255e-005,2.239343e-005
1.404000e+000,-2.098116e-005,2.238919e-005
1.404519e+000,-2.098116e-005,2.238507e-005
1.405038e+000,-2.030976e-005,2.237951e-005
1.405558e+000,-1.829557e-005,2.236803e-005
1.406077e+000,-1.695277e-005,2.235605e-005
1.406596e+000,-1.963836e-005,2.235149e-005
1.407115e+000,-2.366674e-005,2.235579e-005
1.407635e+000,-2.265965e-005,2.236626e-005
1.408154e+000,-1.963836e-005,2.237341e-005
1.408673e+000,-1.913481e-005,2.237744e-005
1.409192e+000,-1.795987e-005,2.238213e-005
1.409712e+000,-1.225299e-005,2.238213e-005
1.410231e+000,-4.867628e-006,2.237210e-005
1.410750e+000,-1.678492e-007,2.235527e-005
1.411269e+000,-1.678492e-007,2.233733e-005
1.411788e+000,-1.678492e-006,2.232029e-005
1.412308e+000,-3.860533e-006,2.230595e-005
1.412827e+000,-5.539025e-006,2.229577e-005
1.413346e+000,-7.217518e-006,2.228771e-005
1.413865e+000,-8.896010e-006,2.227973e-005
1.414385e+000,-1.023880e-005,2.227277e-005
1.414904e+000,-1.225299e-005,2.226794e-005
1.415423e+000,-1.292439e-005,2.226453e-005
1.415942e+000,-1.560998e-005,2.226071e-005
1.416462e+000,-1.695277e-005,2.225971e-005
1.416981e+000,-1.527428e-005,2.226075e-005
1.417500e+000,-1.594568e-005,2.225927e-005
1.418019e+000,-2.098116e-005,2.225876e-005
1.418538e+000,-2.601663e-005,2.226694e-005
1.419058e+000,-2.769513e-005,2.228564e-005
1.419577e+000,-2.635233e-005,2.230878e-005
1.420096e+000,-2.601663e-005,2.232827e-005
1.420615e+000,-2.937362e-005,2.234639e-005
1.421135e+000,-3.105211e-005,2.237094e-005
1.421654e+000,-3.239490e-005,2.239901e-005
1.422173e+000,-3.273060e-005,2.242855e-005
1.422692e+000,-3.138781e-005,2.246151e-005
1.423212e+000,-3.038071e-005,2.249215e-005
1.423731e+000,-3.172351e-005,2.251988e-005
1.424250e+000,-3.440909e-005,2.255198e-005
1.424769e+000,-3.642328e-005,2.259080e-005
1.425288e+000,-3.709468e-005,2.263525e-005
1.425808e+000,-3.608759e-005,2.268245e-005
1.426327e+000,-3.440909e-005,2.272502e-005
1.426846e+000,-3.373770e-005,2.276439e-005
1.427365e+000,-3.642328e-005,2.280133e-005
1.427885e+000,-3.877317e-005,2.284235e-005
1.428404e+000,-3.709468e-005,2.288665e-005
1.428923e+000,-3.541619e-005,2.292475e-005
1.429442e+000,-3.675899e-005,2.295763e-005
1.429962e+000,-4.112306e-005,2.299754e-005
1.430481e+000,-4.145876e-005,2.305071e-005
1.431000e+000,-3.944457e-005,2.309996e-005
1.431519e+000,-3.843748e-005,2.314328e-005
1.432038e+000,-3.776608e-005,2.318444e-005
1.432558e+000,-3.843748e-005,2.321563e-005
1.433077e+000,-3.675899e-005,2.325066e-005
1.433596e+000,-3.273060e-005,2.328157e-005
1.434115e+000,-2.970932e-005,2.329839e-005
1.434635e+000,-2.920577e-005,2.330678e-005
1.435154e+000,-3.038071e-005,2.331840e-005
1.435673e+000,-3.172351e-005,2.333732e-005
1.436192e+000,-3.038071e-005,2.336315e-005
1.436712e+000,-2.903792e-005,2.338585e-005
1.437231e+000,-2.769513e-005,2.340118e-005
1.437750e+000,-2.568093e-005,2.340893e-005
1.438269e+000,-2.433814e-005,2.341405e-005
1.438788e+000,-2.400244e-005,2.341687e-005
1.439308e+000,-2.299535e-005,2.341965e-005
1.439827e+000,-2.165255e-005,2.341610e-005
1.440346e+000,-2.098116e-005,2.340763e-005
1.440865e+000,-1.896696e-005,2.340505e-005
1.441385e+000,-1.695277e-005,2.340361e-005
1.441904e+000,-1.762417e-005,2.339744e-005
1.442423e+000,-1.863127e-005,2.339041e-005
1.442942e+000,-1.829557e-005,2.338335e-005
1.443462e+000,-1.628138e-005,2.337607e-005
1.443981e+000,-1.493858e-005,2.336701e-005
1.444500e+000,-1.628138e-005,2.335978e-005
1.445019e+000,-1.594568e-005,2.335722e-005
1.445538e+000,-1.510643e-005,2.335364e-005
1.446058e+000,-1.493858e-005,2.334663e-005
1.446577e+000,-1.359579e-005,2.333940e-005
1.447096e+000,-1.225299e-005,2.333217e-005
1.447615e+000,-1.326009e-005,2.332502e-005
1.448135e+000,-1.359579e-005,2.331738e-005
1.448654e+000,-1.393149e-005,2.330958e-005
1.449173e+000,-1.577783e-005,2.329984e-005
