X [s],L DELTOID ANTERIOR: EMG 3 [V],L DELTOID ANTERIOR: EMG 3->filter (FilterSlidingRMS57) [V]
0.000000e+000,0.000000e+000,0.000000e+000
7.941176e-004,0.000000e+000,0.000000e+000
1.588235e-003,0.000000e+000,0.000000e+000
2.382353e-003,0.000000e+000,0.000000e+000
3.176471e-003,0.000000e+000,0.000000e+000
3.970588e-003,0.000000e+000,0.000000e+000
4.764706e-003,0.000000e+000,0.000000e+000
5.558824e-003,0.000000e+000,0.000000e+000
6.352941e-003,0.000000e+000,0.000000e+000
7.147059e-003,0.000000e+000,0.000000e+000
7.941176e-003,0.000000e+000,0.000000e+000
8.735294e-003,0.000000e+000,0.000000e+000
9.529412e-003,0.000000e+000,0.000000e+000
1.032353e-002,0.000000e+000,0.000000e+000
1.111765e-002,0.000000e+000,0.000000e+000
1.191176e-002,0.000000e+000,0.000000e+000
1.270588e-002,0.000000e+000,0.000000e+000
1.350000e-002,0.000000e+000,0.000000e+000
1.429412e-002,0.000000e+000,0.000000e+000
1.508824e-002,0.000000e+000,0.000000e+000
1.588235e-002,0.000000e+000,0.000000e+000
1.667647e-002,0.000000e+000,0.000000e+000
1.747059e-002,0.000000e+000,0.000000e+000
1.826471e-002,0.000000e+000,0.000000e+000
1.905882e-002,0.000000e+000,0.000000e+000
1.985294e-002,0.000000e+000,0.000000e+000
2.064706e-002,0.000000e+000,0.000000e+000
2.144118e-002,0.000000e+000,0.000000e+000
2.223529e-002,0.000000e+000,0.000000e+000
2.302941e-002,0.000000e+000,0.000000e+000
2.382353e-002,0.000000e+000,0.000000e+000
2.461765e-002,0.000000e+000,0.000000e+000
2.541176e-002,0.000000e+000,0.000000e+000
2.620588e-002,0.000000e+000,0.000000e+000
2.700000e-002,0.000000e+000,0.000000e+000
2.779412e-002,0.000000e+000,0.000000e+000
2.858824e-002,0.000000e+000,0.000000e+000
2.938235e-002,0.000000e+000,0.000000e+000
3.017647e-002,0.000000e+000,0.000000e+000
3.097059e-002,0.000000e+000,0.000000e+000
3.176471e-002,0.000000e+000,0.000000e+000
3.255882e-002,0.000000e+000,0.000000e+000
3.335294e-002,0.000000e+000,0.000000e+000
3.414706e-002,0.000000e+000,0.000000e+000
3.494118e-002,0.000000e+000,0.000000e+000
3.573529e-002,0.000000e+000,0.000000e+000
3.652941e-002,0.000000e+000,0.000000e+000
3.732353e-002,0.000000e+000,0.000000e+000
3.811765e-002,0.000000e+000,0.000000e+000
3.891176e-002,0.000000e+000,0.000000e+000
3.970588e-002,0.000000e+000,0.000000e+000
4.050000e-002,0.000000e+000,0.000000e+000
4.129412e-002,0.000000e+000,0.000000e+000
4.208824e-002,0.000000e+000,0.000000e+000
4.288235e-002,0.000000e+000,0.000000e+000
4.367647e-002,0.000000e+000,0.000000e+000
4.447059e-002,0.000000e+000,0.000000e+000
4.526471e-002,0.000000e+000,0.000000e+000
4.605882e-002,0.000000e+000,0.000000e+000
4.685294e-002,0.000000e+000,0.000000e+000
4.764706e-002,0.000000e+000,0.000000e+000
4.844118e-002,0.000000e+000,0.000000e+000
4.923529e-002,0.000000e+000,0.000000e+000
5.002941e-002,0.000000e+000,0.000000e+000
5.082353e-002,0.000000e+000,0.000000e+000
5.161765e-002,0.000000e+000,0.000000e+000
5.241176e-002,0.000000e+000,0.000000e+000
5.320588e-002,0.000000e+000,0.000000e+000
5.400000e-002,0.000000e+000,0.000000e+000
5.479412e-002,0.000000e+000,0.000000e+000
5.558824e-002,0.000000e+000,0.000000e+000
5.638235e-002,0.000000e+000,0.000000e+000
5.717647e-002,0.000000e+000,0.000000e+000
5.797059e-002,0.000000e+000,0.000000e+000
5.876471e-002,0.000000e+000,0.000000e+000
5.955882e-002,0.000000e+000,0.000000e+000
6.035294e-002,0.000000e+000,0.000000e+000
6.114706e-002,0.000000e+000,0.000000e+000
6.194118e-002,0.000000e+000,0.000000e+000
6.273529e-002,0.000000e+000,0.000000e+000
6.352941e-002,0.000000e+000,0.000000e+000
6.432353e-002,0.000000e+000,0.000000e+000
6.511765e-002,0.000000e+000,0.000000e+000
6.591176e-002,0.000000e+000,0.000000e+000
6.670588e-002,0.000000e+000,0.000000e+000
6.750000e-002,0.000000e+000,0.000000e+000
6.829412e-002,0.000000e+000,0.000000e+000
6.908824e-002,0.000000e+000,0.000000e+000
6.988235e-002,0.000000e+000,0.000000e+000
7.067647e-002,0.000000e+000,0.000000e+000
7.147059e-002,0.000000e+000,0.000000e+000
7.226471e-002,0.000000e+000,0.000000e+000
7.305882e-002,0.000000e+000,0.000000e+000
7.385294e-002,0.000000e+000,0.000000e+000
7.464706e-002,0.000000e+000,0.000000e+000
7.544118e-002,0.000000e+000,0.000000e+000
7.623529e-002,0.000000e+000,0.000000e+000
7.702941e-002,0.000000e+000,0.000000e+000
7.782353e-002,0.000000e+000,0.000000e+000
7.861765e-002,0.000000e+000,0.000000e+000
7.941176e-002,0.000000e+000,0.000000e+000
8.020588e-002,0.000000e+000,0.000000e+000
8.100000e-002,0.000000e+000,0.000000e+000
8.179412e-002,0.000000e+000,0.000000e+000
8.258824e-002,0.000000e+000,0.000000e+000
8.338235e-002,0.000000e+000,0.000000e+000
8.417647e-002,0.000000e+000,0.000000e+000
8.497059e-002,0.000000e+000,0.000000e+000
8.576471e-002,0.000000e+000,0.000000e+000
8.655882e-002,0.000000e+000,0.000000e+000
8.735294e-002,0.000000e+000,0.000000e+000
8.814706e-002,0.000000e+000,0.000000e+000
8.894118e-002,0.000000e+000,0.000000e+000
8.973529e-002,0.000000e+000,0.000000e+000
9.052941e-002,0.000000e+000,0.000000e+000
9.132353e-002,0.000000e+000,0.000000e+000
9.211765e-002,0.000000e+000,0.000000e+000
9.291176e-002,0.000000e+000,0.000000e+000
9.370588e-002,0.000000e+000,0.000000e+000
9.450000e-002,-1.695277e-005,0.000000e+000
9.529412e-002,-7.553216e-006,0.000000e+000
9.608824e-002,-6.881819e-006,0.000000e+000
9.688235e-002,-6.546120e-006,0.000000e+000
9.767647e-002,-5.539025e-006,0.000000e+000
9.847059e-002,-6.881819e-006,0.000000e+000
9.926471e-002,-7.217518e-006,0.000000e+000
1.000588e-001,-4.364080e-006,0.000000e+000
1.008529e-001,-6.210422e-006,0.000000e+000
1.016471e-001,-5.874723e-006,0.000000e+000
1.024412e-001,-6.378271e-006,0.000000e+000
1.032353e-001,-4.196231e-006,0.000000e+000
1.040294e-001,-4.867628e-006,0.000000e+000
1.048235e-001,-4.531929e-006,0.000000e+000
1.056176e-001,-4.196231e-006,0.000000e+000
1.064118e-001,-6.210422e-006,0.000000e+000
1.072059e-001,-4.867628e-006,0.000000e+000
1.080000e-001,-4.531929e-006,0.000000e+000
1.087941e-001,-5.874723e-006,0.000000e+000
1.095882e-001,-7.217518e-006,0.000000e+000
1.103824e-001,-5.706874e-006,0.000000e+000
1.111765e-001,-7.049668e-006,0.000000e+000
1.119706e-001,-5.874723e-006,0.000000e+000
1.127647e-001,-5.874723e-006,0.000000e+000
1.135588e-001,-8.224612e-006,0.000000e+000
1.143529e-001,-8.224612e-006,0.000000e+000
1.151471e-001,-6.881819e-006,0.000000e+000
1.159412e-001,-7.553216e-006,0.000000e+000
1.167353e-001,-5.539025e-006,0.000000e+000
1.175294e-001,-5.539025e-006,0.000000e+000
1.183235e-001,-5.539025e-006,0.000000e+000
1.191176e-001,-3.189136e-006,0.000000e+000
1.199118e-001,-1.678492e-007,0.000000e+000
1.207059e-001,-4.196231e-006,0.000000e+000
1.215000e-001,-2.853437e-006,0.000000e+000
1.222941e-001,-1.678492e-007,0.000000e+000
1.230882e-001,-3.524834e-006,0.000000e+000
1.238824e-001,-6.210422e-006,0.000000e+000
1.246765e-001,-6.546120e-006,0.000000e+000
1.254706e-001,-3.692683e-006,0.000000e+000
1.262647e-001,-5.874723e-006,0.000000e+000
1.270588e-001,-5.539025e-006,0.000000e+000
1.278529e-001,-3.524834e-006,0.000000e+000
1.286471e-001,-6.881819e-006,0.000000e+000
1.294412e-001,-4.867628e-006,0.000000e+000
1.302353e-001,-1.510643e-006,0.000000e+000
1.310294e-001,-3.692683e-006,0.000000e+000
1.318235e-001,-5.035477e-006,0.000000e+000
1.326176e-001,-4.867628e-006,0.000000e+000
1.334118e-001,-3.860533e-006,0.000000e+000
1.342059e-001,-7.888914e-006,0.000000e+000
1.350000e-001,-7.049668e-006,0.000000e+000
1.357941e-001,-6.546120e-006,0.000000e+000
1.365882e-001,-8.896010e-006,0.000000e+000
1.373824e-001,-7.553216e-006,0.000000e+000
1.381765e-001,-4.531929e-006,0.000000e+000
1.389706e-001,-3.860533e-006,0.000000e+000
1.397647e-001,-2.853437e-006,0.000000e+000
1.405588e-001,-5.539025e-006,0.000000e+000
1.413529e-001,-3.189136e-006,0.000000e+000
1.421471e-001,-1.510643e-006,0.000000e+000
1.429412e-001,-4.531929e-006,0.000000e+000
1.437353e-001,-4.196231e-006,0.000000e+000
1.445294e-001,-4.867628e-006,0.000000e+000
1.453235e-001,-6.881819e-006,0.000000e+000
1.461176e-001,-7.217518e-006,0.000000e+000
1.469118e-001,-7.217518e-006,0.000000e+000
1.477059e-001,-5.539025e-006,0.000000e+000
1.485000e-001,-6.546120e-006,0.000000e+000
1.492941e-001,-8.224612e-006,0.000000e+000
1.500882e-001,-8.560311e-006,0.000000e+000
1.508824e-001,-5.539025e-006,0.000000e+000
1.516765e-001,-4.531929e-006,0.000000e+000
1.524706e-001,-8.560311e-006,0.000000e+000
1.532647e-001,-7.888914e-006,0.000000e+000
1.540588e-001,-5.874723e-006,0.000000e+000
1.548529e-001,-5.539025e-006,0.000000e+000
1.556471e-001,-6.546120e-006,0.000000e+000
1.564412e-001,-8.896010e-006,0.000000e+000
1.572353e-001,-1.225299e-005,0.000000e+000
1.580294e-001,-7.721065e-006,0.000000e+000
1.588235e-001,-4.531929e-006,0.000000e+000
1.596176e-001,-6.210422e-006,0.000000e+000
1.604118e-001,-6.210422e-006,0.000000e+000
1.612059e-001,-3.692683e-006,0.000000e+000
1.620000e-001,-4.196231e-006,0.000000e+000
1.627941e-001,-4.867628e-006,0.000000e+000
1.635882e-001,-6.210422e-006,0.000000e+000
1.643824e-001,-7.888914e-006,0.000000e+000
1.651765e-001,-6.210422e-006,0.000000e+000
1.659706e-001,-7.553216e-006,0.000000e+000
1.667647e-001,-7.553216e-006,0.000000e+000
1.675588e-001,-7.049668e-006,0.000000e+000
1.683529e-001,-5.539025e-006,0.000000e+000
1.691471e-001,-3.524834e-006,0.000000e+000
1.699412e-001,-5.035477e-006,0.000000e+000
1.707353e-001,-6.881819e-006,0.000000e+000
1.715294e-001,-4.531929e-006,0.000000e+000
1.723235e-001,-6.881819e-006,0.000000e+000
1.731176e-001,-8.224612e-006,0.000000e+000
1.739118e-001,-8.224612e-006,0.000000e+000
1.747059e-001,-6.210422e-006,0.000000e+000
1.755000e-001,-7.553216e-006,0.000000e+000
1.762941e-001,-1.057450e-005,0.000000e+000
1.770882e-001,-9.567407e-006,0.000000e+000
1.778824e-001,-7.888914e-006,0.000000e+000
1.786765e-001,-7.888914e-006,0.000000e+000
1.794706e-001,-9.567407e-006,0.000000e+000
1.802647e-001,-1.091020e-005,0.000000e+000
1.810588e-001,-9.231709e-006,0.000000e+000
1.818529e-001,-7.217518e-006,0.000000e+000
1.826471e-001,-7.553216e-006,0.000000e+000
1.834412e-001,-8.224612e-006,0.000000e+000
1.842353e-001,-5.706874e-006,0.000000e+000
1.850294e-001,-6.546120e-006,0.000000e+000
1.858235e-001,-7.553216e-006,0.000000e+000
1.866176e-001,-7.217518e-006,0.000000e+000
1.874118e-001,-4.867628e-006,0.000000e+000
1.882059e-001,-2.853437e-006,0.000000e+000
1.890000e-001,-4.531929e-006,0.000000e+000
1.897941e-001,-6.546120e-006,0.000000e+000
1.905882e-001,-4.867628e-006,0.000000e+000
1.913824e-001,-5.035477e-006,0.000000e+000
1.921765e-001,-5.203327e-006,0.000000e+000
1.929706e-001,-3.860533e-006,0.000000e+000
1.937647e-001,-3.524834e-006,0.000000e+000
1.945588e-001,-2.853437e-006,0.000000e+000
1.953529e-001,-2.853437e-006,0.000000e+000
1.961471e-001,-5.539025e-006,0.000000e+000
1.969412e-001,-4.867628e-006,0.000000e+000
1.977353e-001,-1.510643e-006,0.000000e+000
1.985294e-001,-2.182040e-006,0.000000e+000
1.993235e-001,-4.531929e-006,0.000000e+000
2.001176e-001,-7.049668e-006,0.000000e+000
2.009118e-001,-5.203327e-006,0.000000e+000
2.017059e-001,-3.524834e-006,0.000000e+000
2.025000e-001,-4.196231e-006,0.000000e+000
2.032941e-001,-4.867628e-006,0.000000e+000
2.040882e-001,-8.224612e-006,0.000000e+000
2.048824e-001,-8.560311e-006,0.000000e+000
2.056765e-001,-6.881819e-006,0.000000e+000
2.064706e-001,-8.224612e-006,0.000000e+000
2.072647e-001,-1.023880e-005,0.000000e+000
2.080588e-001,-6.210422e-006,0.000000e+000
2.088529e-001,-7.888914e-006,0.000000e+000
2.096471e-001,-6.378271e-006,0.000000e+000
2.104412e-001,-3.524834e-006,0.000000e+000
2.112353e-001,-3.860533e-006,0.000000e+000
2.120294e-001,-5.874723e-006,0.000000e+000
2.128235e-001,-4.196231e-006,0.000000e+000
2.136176e-001,-2.853437e-006,0.000000e+000
2.144118e-001,-4.867628e-006,0.000000e+000
2.152059e-001,-5.035477e-006,0.000000e+000
2.160000e-001,-4.196231e-006,0.000000e+000
2.167941e-001,-5.874723e-006,0.000000e+000
2.175882e-001,-6.210422e-006,0.000000e+000
2.183824e-001,-5.539025e-006,0.000000e+000
2.191765e-001,-9.903105e-006,0.000000e+000
2.199706e-001,-6.881819e-006,0.000000e+000
2.207647e-001,-8.896010e-006,0.000000e+000
2.215588e-001,-7.553216e-006,0.000000e+000
2.223529e-001,-5.874723e-006,0.000000e+000
2.231471e-001,-5.203327e-006,0.000000e+000
2.239412e-001,-6.881819e-006,0.000000e+000
2.247353e-001,-3.692683e-006,0.000000e+000
2.255294e-001,-4.196231e-006,0.000000e+000
2.263235e-001,-6.546120e-006,0.000000e+000
2.271176e-001,-8.560311e-006,0.000000e+000
2.279118e-001,-7.553216e-006,0.000000e+000
2.287059e-001,-5.539025e-006,0.000000e+000
2.295000e-001,-6.378271e-006,0.000000e+000
2.302941e-001,-5.706874e-006,0.000000e+000
2.310882e-001,-5.874723e-006,0.000000e+000
2.318824e-001,-7.888914e-006,0.000000e+000
2.326765e-001,-6.881819e-006,0.000000e+000
2.334706e-001,-6.378271e-006,0.000000e+000
2.342647e-001,-4.867628e-006,0.000000e+000
2.350588e-001,-5.539025e-006,0.000000e+000
2.358529e-001,-5.539025e-006,0.000000e+000
2.366471e-001,-6.881819e-006,0.000000e+000
2.374412e-001,-7.888914e-006,0.000000e+000
2.382353e-001,-7.553216e-006,0.000000e+000
2.390294e-001,-5.203327e-006,0.000000e+000
2.398235e-001,-4.196231e-006,0.000000e+000
2.406176e-001,-6.378271e-006,0.000000e+000
2.414118e-001,-8.560311e-006,0.000000e+000
2.422059e-001,-7.217518e-006,0.000000e+000
2.430000e-001,-3.524834e-006,0.000000e+000
2.437941e-001,-4.531929e-006,0.000000e+000
2.445882e-001,-4.196231e-006,0.000000e+000
2.453824e-001,-2.853437e-006,0.000000e+000
2.461765e-001,-3.524834e-006,0.000000e+000
2.469706e-001,-2.349889e-006,0.000000e+000
2.477647e-001,-4.867628e-006,0.000000e+000
2.485588e-001,-6.546120e-006,0.000000e+000
2.493529e-001,-5.874723e-006,4.959424e-006
2.501471e-001,-5.874723e-006,4.970493e-006
2.509412e-001,-7.553216e-006,4.981537e-006
2.517353e-001,-8.224612e-006,4.999740e-006
2.525294e-001,-7.721065e-006,5.021238e-006
2.533235e-001,-6.881819e-006,5.040108e-006
2.541176e-001,-6.210422e-006,5.055048e-006
2.549118e-001,-7.217518e-006,5.067183e-006
2.557059e-001,-7.553216e-006,5.083527e-006
2.565000e-001,-5.539025e-006,5.101366e-006
2.572941e-001,-5.035477e-006,5.110934e-006
2.580882e-001,-6.881819e-006,5.118828e-006
2.588824e-001,-6.378271e-006,5.133539e-006
2.596765e-001,-7.217518e-006,5.146143e-006
2.604706e-001,-7.553216e-006,5.162236e-006
2.612647e-001,-4.867628e-006,5.179805e-006
2.620588e-001,-4.867628e-006,5.187083e-006
2.628529e-001,-6.378271e-006,5.194352e-006
2.636471e-001,-6.881819e-006,5.206809e-006
2.644412e-001,-6.881819e-006,5.221272e-006
2.652353e-001,-5.203327e-006,5.235695e-006
2.660294e-001,-6.881819e-006,5.243923e-006
2.668235e-001,-6.881819e-006,5.258285e-006
2.676176e-001,-4.867628e-006,5.272607e-006
2.684118e-001,-2.853437e-006,5.279758e-006
2.692059e-001,-4.867628e-006,5.282213e-006
2.700000e-001,-4.196231e-006,5.289351e-006
2.707941e-001,-4.196231e-006,5.294649e-006
2.715882e-001,-2.517739e-006,5.299942e-006
2.723824e-001,-4.196231e-006,5.301846e-006
2.731765e-001,-4.867628e-006,5.307132e-006
2.739706e-001,-3.860533e-006,5.314236e-006
2.747647e-001,-4.196231e-006,5.318700e-006
2.755588e-001,-3.524834e-006,5.323969e-006
2.763529e-001,-6.210422e-006,5.327684e-006
2.771471e-001,-4.867628e-006,5.339199e-006
2.779412e-001,-6.546120e-006,5.346261e-006
2.787353e-001,-8.896010e-006,5.359009e-006
2.795294e-001,-9.567407e-006,5.382473e-006
2.803235e-001,-6.210422e-006,5.409485e-006
2.811176e-001,-8.224612e-006,5.420827e-006
2.819118e-001,-6.881819e-006,5.440661e-006
2.827059e-001,-3.860533e-006,5.454504e-006
2.835000e-001,-4.196231e-006,5.458853e-006
2.842941e-001,-5.874723e-006,5.463987e-006
2.850882e-001,-6.881819e-006,5.474036e-006
2.858824e-001,-6.210422e-006,5.487795e-006
2.866765e-001,-7.888914e-006,5.498975e-006
2.874706e-001,-4.867628e-006,5.516967e-006
2.882647e-001,-6.210422e-006,5.523802e-006
2.890588e-001,-6.210422e-006,5.534909e-006
2.898529e-001,-5.203327e-006,5.545994e-006
2.906471e-001,-7.049668e-006,5.553762e-006
2.914412e-001,-6.881819e-006,5.567993e-006
2.922353e-001,-5.706874e-006,5.581520e-006
2.930294e-001,-6.546120e-006,5.590804e-006
2.938235e-001,-1.091020e-005,5.602996e-006
2.946176e-001,-1.174945e-005,5.636723e-006
2.954118e-001,-9.063859e-006,5.675588e-006
2.962059e-001,-9.567407e-006,5.698590e-006
2.970000e-001,-8.896010e-006,5.724111e-006
2.977941e-001,-8.224612e-006,5.746084e-006
2.985882e-001,-7.553216e-006,5.764799e-006
2.993824e-001,-6.210422e-006,5.780536e-006
3.001765e-001,-4.196231e-006,5.791152e-006
3.009706e-001,-4.531929e-006,5.795991e-006
3.017647e-001,-8.392462e-007,5.801631e-006
3.025588e-001,-1.510643e-006,5.801824e-006
3.033529e-001,-6.210422e-006,5.802451e-006
3.041471e-001,-6.881819e-006,5.813025e-006
3.049412e-001,-7.217518e-006,5.825984e-006
3.057353e-001,-7.553216e-006,5.840205e-006
3.065294e-001,-5.539025e-006,5.855739e-006
3.073235e-001,-3.524834e-006,5.864076e-006
3.081176e-001,-4.364080e-006,5.867449e-006
3.089118e-001,-4.867628e-006,5.872615e-006
3.097059e-001,-4.531929e-006,5.879037e-006
3.105000e-001,-5.539025e-006,5.884597e-006
3.112941e-001,-3.860533e-006,5.892893e-006
3.120882e-001,-6.378271e-006,5.896919e-006
3.128824e-001,-5.539025e-006,5.907894e-006
3.136765e-001,-4.531929e-006,5.916158e-006
3.144706e-001,-7.553216e-006,5.921683e-006
3.152647e-001,-8.392462e-006,5.937005e-006
3.160588e-001,-4.867628e-006,5.955866e-006
3.168529e-001,-3.860533e-006,5.962197e-006
3.176471e-001,-5.874723e-006,5.966176e-006
3.184412e-001,-6.210422e-006,5.975380e-006
3.192353e-001,-6.881819e-006,5.985650e-006
3.200294e-001,-7.553216e-006,5.998235e-006
3.208235e-001,-5.203327e-006,6.013362e-006
3.216176e-001,-3.524834e-006,6.020527e-006
3.224118e-001,-3.189136e-006,6.023812e-006
3.232059e-001,-3.189136e-006,6.026500e-006
3.240000e-001,-4.196231e-006,6.029187e-006
3.247941e-001,-3.860533e-006,6.033835e-006
3.255882e-001,-5.539025e-006,6.037767e-006
3.263824e-001,-5.539025e-006,6.045853e-006
3.271765e-001,-7.553216e-006,6.053929e-006
3.279706e-001,-5.203327e-006,6.068916e-006
3.287647e-001,-7.553216e-006,6.076016e-006
3.295588e-001,-8.896010e-006,6.090949e-006
3.303529e-001,-4.867628e-006,6.111603e-006
3.311471e-001,-6.210422e-006,6.117774e-006
3.319412e-001,-8.896010e-006,6.127805e-006
3.327353e-001,-8.224612e-006,6.148335e-006
3.335294e-001,-6.881819e-006,6.165829e-006
3.343235e-001,-8.728161e-006,6.178048e-006
3.351176e-001,-8.896010e-006,6.197652e-006
3.359118e-001,-4.867628e-006,6.217952e-006
3.367059e-001,-7.049668e-006,6.224017e-006
3.375000e-001,-6.881819e-006,6.236719e-006
3.382941e-001,-7.217518e-006,6.248799e-006
3.390882e-001,-9.903105e-006,6.262059e-006
3.398824e-001,-6.881819e-006,6.286948e-006
3.406765e-001,-5.874723e-006,6.298932e-006
3.414706e-001,-6.378271e-006,6.307651e-006
3.422647e-001,-5.035477e-006,6.317912e-006
3.430588e-001,-4.867628e-006,6.324300e-006
3.438529e-001,-6.378271e-006,6.330263e-006
3.446471e-001,-6.210422e-006,6.267896e-006
3.454412e-001,-4.867628e-006,6.263198e-006
3.462353e-001,-4.196231e-006,6.257178e-006
3.470294e-001,-6.210422e-006,6.250752e-006
3.478235e-001,-6.210422e-006,6.252761e-006
3.486176e-001,-4.196231e-006,6.250522e-006
3.494118e-001,-6.546120e-006,6.241731e-006
3.502059e-001,-3.189136e-006,6.247801e-006
3.510000e-001,-5.035477e-006,6.240559e-006
3.517941e-001,-6.881819e-006,6.238222e-006
3.525882e-001,-7.217518e-006,6.239926e-006
3.533824e-001,-8.224612e-006,6.248720e-006
3.541765e-001,-6.210422e-006,6.259910e-006
3.549706e-001,-7.049668e-006,6.264495e-006
3.557647e-001,-4.867628e-006,6.272646e-006
3.565588e-001,-5.539025e-006,6.268869e-006
3.573529e-001,-5.539025e-006,6.270644e-006
3.581471e-001,-4.867628e-006,6.273219e-006
3.589412e-001,-4.531929e-006,6.270472e-006
3.597353e-001,-5.203327e-006,6.262454e-006
3.605294e-001,-6.210422e-006,6.261057e-006
3.613235e-001,-4.867628e-006,6.258226e-006
3.621176e-001,-5.874723e-006,6.255472e-006
3.629118e-001,-8.224612e-006,6.255472e-006
3.637059e-001,-6.546120e-006,6.255472e-006
3.645000e-001,-7.553216e-006,6.249158e-006
3.652941e-001,-6.210422e-006,6.251627e-006
3.660882e-001,-4.867628e-006,6.246918e-006
3.668824e-001,-8.560311e-006,6.245137e-006
3.676765e-001,-6.881819e-006,6.255988e-006
3.684706e-001,-4.196231e-006,6.260233e-006
3.692647e-001,-1.846342e-006,6.262124e-006
3.700588e-001,-4.867628e-006,6.262983e-006
3.708529e-001,-5.874723e-006,6.264530e-006
3.716471e-001,-6.881819e-006,6.271230e-006
3.724412e-001,-4.867628e-006,6.283236e-006
3.732353e-001,-6.210422e-006,6.286092e-006
3.740294e-001,-7.049668e-006,6.286092e-006
3.748235e-001,-6.881819e-006,6.287826e-006
3.756176e-001,-4.196231e-006,6.296360e-006
3.764118e-001,-2.853437e-006,6.292084e-006
3.772059e-001,-5.539025e-006,6.286377e-006
3.780000e-001,-3.524834e-006,6.291000e-006
3.787941e-001,-2.182040e-006,6.282151e-006
3.795882e-001,-1.510643e-006,6.277350e-006
3.803824e-001,-4.364080e-006,6.277350e-006
3.811765e-001,-9.735256e-006,6.278722e-006
3.819706e-001,-1.023880e-005,6.296303e-006
3.827647e-001,-7.888914e-006,6.316790e-006
3.835588e-001,-8.896010e-006,6.328711e-006
3.843529e-001,-9.735256e-006,6.332962e-006
3.851471e-001,-7.721065e-006,6.344286e-006
3.859412e-001,-7.217518e-006,6.348492e-006
3.867353e-001,-5.539025e-006,6.341705e-006
3.875294e-001,-4.867628e-006,6.335080e-006
3.883235e-001,-4.531929e-006,6.335873e-006
3.891176e-001,-5.539025e-006,6.337289e-006
3.899118e-001,-7.888914e-006,6.342950e-006
3.907059e-001,-5.539025e-006,6.350866e-006
3.915000e-001,-4.867628e-006,6.356007e-006
3.922941e-001,-5.203327e-006,6.361369e-006
3.930882e-001,-7.049668e-006,6.363005e-006
3.938824e-001,-8.392462e-006,6.371030e-006
3.946765e-001,-6.881819e-006,6.382701e-006
3.954706e-001,-5.874723e-006,6.382701e-006
3.962647e-001,-5.539025e-006,6.378314e-006
3.970588e-001,-6.210422e-006,6.372966e-006
3.978529e-001,-5.874723e-006,6.374937e-006
3.986471e-001,-5.539025e-006,6.372853e-006
3.994412e-001,-4.531929e-006,6.363611e-006
4.002353e-001,-2.853437e-006,6.350400e-006
4.010294e-001,-6.378271e-006,6.344746e-006
4.018235e-001,-8.224612e-006,6.349800e-006
4.026176e-001,-7.217518e-006,6.348386e-006
4.034118e-001,-6.546120e-006,6.345842e-006
4.042059e-001,-4.364080e-006,6.347934e-006
4.050000e-001,-4.196231e-006,6.345015e-006
4.057941e-001,-4.531929e-006,6.338676e-006
4.065882e-001,-4.196231e-006,6.323938e-006
4.073824e-001,-4.531929e-006,6.290480e-006
4.081765e-001,-5.874723e-006,6.280580e-006
4.089706e-001,-7.217518e-006,6.284122e-006
4.097647e-001,-8.896010e-006,6.287547e-006
4.105588e-001,-4.867628e-006,6.297814e-006
4.113529e-001,-7.049668e-006,6.300356e-006
4.121471e-001,-4.867628e-006,6.308461e-006
4.129412e-001,-7.049668e-006,6.308461e-006
4.137353e-001,-7.553216e-006,6.311270e-006
4.145294e-001,-5.539025e-006,6.309962e-006
4.153235e-001,-5.539025e-006,6.307971e-006
4.161176e-001,-4.867628e-006,6.301310e-006
4.169118e-001,-6.210422e-006,6.292875e-006
4.177059e-001,-4.867628e-006,6.290059e-006
4.185000e-001,-8.392462e-007,6.288290e-006
4.192941e-001,-2.853437e-006,6.285321e-006
4.200882e-001,-4.531929e-006,6.280958e-006
4.208824e-001,-6.042573e-006,6.274155e-006
4.216765e-001,-6.210422e-006,6.278208e-006
4.224706e-001,-8.224612e-006,6.275978e-006
4.232647e-001,-5.539025e-006,6.275978e-006
4.240588e-001,-7.217518e-006,6.266592e-006
4.248529e-001,-7.049668e-006,6.270027e-006
4.256471e-001,-4.196231e-006,6.268160e-006
4.264412e-001,-4.531929e-006,6.244180e-006
4.272353e-001,-8.224612e-006,6.226049e-006
4.280294e-001,-7.888914e-006,6.227433e-006
4.288235e-001,-5.203327e-006,6.227433e-006
4.296176e-001,-6.881819e-006,6.210928e-006
4.304118e-001,-7.217518e-006,6.192525e-006
4.312059e-001,-5.874723e-006,6.184000e-006
4.320000e-001,-7.049668e-006,6.179471e-006
4.327941e-001,-9.231709e-006,6.177576e-006
4.335882e-001,-8.224612e-006,6.182106e-006
4.343824e-001,-9.903105e-006,6.191134e-006
4.351765e-001,-9.903105e-006,6.205320e-006
4.359706e-001,-8.224612e-006,6.215838e-006
4.367647e-001,-4.196231e-006,6.219821e-006
4.375588e-001,-2.853437e-006,6.218262e-006
4.383529e-001,-5.539025e-006,6.218262e-006
4.391471e-001,-7.217518e-006,6.220859e-006
4.399412e-001,-6.881819e-006,6.223224e-006
4.407353e-001,-8.392462e-006,6.229276e-006
4.415294e-001,-6.881819e-006,6.240788e-006
4.423235e-001,-4.531929e-006,6.245962e-006
4.431176e-001,-5.706874e-006,6.247399e-006
4.439118e-001,-5.203327e-006,6.252531e-006
4.447059e-001,-2.853437e-006,6.257350e-006
4.455000e-001,-5.874723e-006,6.257350e-006
4.462941e-001,-6.881819e-006,6.258325e-006
4.470882e-001,-8.224612e-006,6.264344e-006
4.478824e-001,-6.881819e-006,6.280937e-006
4.486765e-001,-5.874723e-006,6.291727e-006
4.494706e-001,-7.217518e-006,6.295263e-006
4.502647e-001,-8.560311e-006,6.295868e-006
4.510588e-001,-3.524834e-006,6.307543e-006
4.518529e-001,-4.867628e-006,6.307543e-006
4.526471e-001,-8.392462e-007,6.309079e-006
4.534412e-001,-3.189136e-006,6.303274e-006
4.542353e-001,-7.553216e-006,6.288738e-006
4.550294e-001,-8.224612e-006,6.284628e-006
4.558235e-001,-4.531929e-006,6.289765e-006
4.566176e-001,-7.553216e-006,6.277829e-006
4.574118e-001,-8.560311e-006,6.265697e-006
4.582059e-001,-6.210422e-006,6.274512e-006
4.590000e-001,-4.196231e-006,6.268503e-006
4.597941e-001,-4.196231e-006,6.262639e-006
4.605882e-001,-3.860533e-006,6.263957e-006
4.613824e-001,-2.853437e-006,6.263957e-006
4.621765e-001,-4.196231e-006,6.257250e-006
4.629706e-001,-5.035477e-006,6.257250e-006
4.637647e-001,-6.881819e-006,6.261629e-006
4.645588e-001,-7.553216e-006,6.267644e-006
4.653529e-001,-8.224612e-006,6.275692e-006
4.661471e-001,-6.881819e-006,6.288375e-006
4.669412e-001,-5.539025e-006,6.291627e-006
4.677353e-001,-6.881819e-006,6.289630e-006
4.685294e-001,-6.210422e-006,6.293851e-006
4.693235e-001,-7.049668e-006,6.278779e-006
4.701176e-001,-6.881819e-006,6.279372e-006
4.709118e-001,-4.196231e-006,6.271308e-006
4.717059e-001,-4.196231e-006,6.261285e-006
4.725000e-001,-6.210422e-006,6.256984e-006
4.732941e-001,-6.210422e-006,6.259909e-006
4.740882e-001,-7.049668e-006,6.257673e-006
4.748824e-001,-5.874723e-006,6.266842e-006
4.756765e-001,-9.231709e-006,6.271136e-006
4.764706e-001,-8.896010e-006,6.281886e-006
4.772647e-001,-6.881819e-006,6.283371e-006
4.780588e-001,-4.867628e-006,6.280915e-006
4.788529e-001,-2.517739e-006,6.279143e-006
4.796471e-001,-5.539025e-006,6.270428e-006
4.804412e-001,-8.224612e-006,6.269948e-006
4.812353e-001,-6.378271e-006,6.278357e-006
4.820294e-001,-8.224612e-006,6.272889e-006
4.828235e-001,-6.210422e-006,6.278035e-006
4.836176e-001,-8.224612e-006,6.277500e-006
4.844118e-001,-8.896010e-006,6.288638e-006
4.852059e-001,-6.881819e-006,6.300897e-006
4.860000e-001,-8.896010e-006,6.305110e-006
4.867941e-001,-7.553216e-006,6.313131e-006
4.875882e-001,-8.896010e-006,6.311823e-006
4.883824e-001,-8.896010e-006,6.317393e-006
4.891765e-001,-8.224612e-006,6.330503e-006
4.899706e-001,-4.867628e-006,6.343076e-006
4.907647e-001,-4.196231e-006,6.338810e-006
4.915588e-001,-2.853437e-006,6.324810e-006
4.923529e-001,-1.678492e-007,6.313735e-006
4.931471e-001,-1.510643e-006,6.310608e-006
4.939412e-001,-3.524834e-006,6.305999e-006
4.947353e-001,-6.881819e-006,6.304690e-006
4.955294e-001,-8.896010e-006,6.314588e-006
4.963235e-001,-7.553216e-006,6.331389e-006
4.971176e-001,-4.196231e-006,6.344335e-006
4.979118e-001,-3.860533e-006,6.342807e-006
4.987059e-001,-6.881819e-006,6.335787e-006
4.995000e-001,-4.867628e-006,6.339015e-006
5.002941e-001,-1.510643e-006,6.336297e-006
5.010882e-001,-3.189136e-006,6.322518e-006
5.018824e-001,-3.524834e-006,6.308027e-006
5.026765e-001,-4.196231e-006,6.296103e-006
5.034706e-001,-6.546120e-006,6.288574e-006
5.042647e-001,-5.539025e-006,6.289658e-006
5.050588e-001,-5.874723e-006,6.284235e-006
5.058529e-001,-2.182040e-006,6.278522e-006
5.066471e-001,-5.539025e-006,6.271945e-006
5.074412e-001,-6.546120e-006,6.273296e-006
5.082353e-001,-7.553216e-006,6.272152e-006
5.090294e-001,-7.721065e-006,6.276306e-006
5.098235e-001,-4.867628e-006,6.278214e-006
5.106176e-001,-6.210422e-006,6.269748e-006
5.114118e-001,-6.210422e-006,6.273525e-006
5.122059e-001,-3.860533e-006,6.277300e-006
5.130000e-001,-4.867628e-006,6.270757e-006
5.137941e-001,-6.210422e-006,6.264745e-006
5.145882e-001,-5.539025e-006,6.262510e-006
5.153824e-001,-4.196231e-006,6.263427e-006
5.161765e-001,-5.539025e-006,6.255858e-006
5.169706e-001,-4.867628e-006,6.251611e-006
5.177647e-001,-9.231709e-006,6.251611e-006
5.185588e-001,-8.896010e-006,6.271215e-006
5.193529e-001,-6.881819e-006,6.285277e-006
5.201471e-001,-6.546120e-006,6.292810e-006
5.209412e-001,-6.881819e-006,6.299195e-006
5.217353e-001,-6.881819e-006,6.309555e-006
5.225294e-001,-6.546120e-006,6.317059e-006
5.233235e-001,-4.867628e-006,6.321887e-006
5.241176e-001,-5.539025e-006,6.324100e-006
5.249118e-001,-5.539025e-006,6.327391e-006
5.257059e-001,-7.217518e-006,6.331984e-006
5.265000e-001,-6.546120e-006,6.335384e-006
5.272941e-001,-4.196231e-006,6.340197e-006
5.280882e-001,-1.678492e-006,6.333854e-006
5.288824e-001,-8.392462e-007,6.314638e-006
5.296765e-001,-4.196231e-006,6.291691e-006
5.304706e-001,-7.217518e-006,6.286384e-006
5.312647e-001,-6.210422e-006,6.282443e-006
5.320588e-001,-7.217518e-006,6.280215e-006
5.328529e-001,-7.553216e-006,6.289637e-006
5.336471e-001,-7.888914e-006,6.299615e-006
5.344412e-001,-5.539025e-006,6.306618e-006
5.352353e-001,-2.517739e-006,6.302406e-006
5.360294e-001,-5.539025e-006,6.294257e-006
5.368235e-001,-8.224612e-006,6.286270e-006
5.376176e-001,-8.224612e-006,6.297393e-006
5.384118e-001,-5.539025e-006,6.304741e-006
5.392059e-001,-9.567407e-006,6.302747e-006
5.400000e-001,-1.158160e-005,6.319012e-006
5.407941e-001,-8.560311e-006,6.340254e-006
5.415882e-001,-9.567407e-006,6.346760e-006
5.423824e-001,-6.546120e-006,6.361537e-006
5.431765e-001,-5.203327e-006,6.361537e-006
5.439706e-001,-3.524834e-006,6.338477e-006
5.447647e-001,-5.539025e-006,6.306839e-006
5.455588e-001,-5.539025e-006,6.293830e-006
5.463529e-001,-7.553216e-006,6.278415e-006
5.471471e-001,-9.063859e-006,6.272810e-006
5.479412e-001,-6.881819e-006,6.276492e-006
5.487353e-001,-8.224612e-006,6.274033e-006
5.495294e-001,-9.567407e-006,6.281408e-006
5.503235e-001,-1.225299e-005,6.300120e-006
5.511176e-001,-8.896010e-006,6.332792e-006
5.519118e-001,-5.706874e-006,6.352483e-006
5.527059e-001,-6.210422e-006,6.360071e-006
5.535000e-001,-7.721065e-006,6.360070e-006
5.542941e-001,-4.531929e-006,6.363138e-006
5.550882e-001,-3.524834e-006,6.355237e-006
5.558824e-001,-6.881819e-006,6.344045e-006
5.566765e-001,-4.531929e-006,6.348230e-006
5.574706e-001,-6.881819e-006,6.350265e-006
5.582647e-001,-5.203327e-006,6.357361e-006
5.590588e-001,-2.517739e-006,6.358207e-006
5.598529e-001,-3.692683e-006,6.354650e-006
5.606471e-001,-4.196231e-006,6.350378e-006
5.614412e-001,-4.867628e-006,6.351056e-006
5.622353e-001,-7.553216e-006,6.346795e-006
5.630294e-001,-4.867628e-006,6.353408e-006
5.638235e-001,-2.182040e-006,6.354198e-006
5.646176e-001,-2.853437e-006,6.341081e-006
5.654118e-001,-7.217518e-006,6.325419e-006
5.662059e-001,-9.567407e-006,6.332564e-006
5.670000e-001,-4.531929e-006,6.351805e-006
5.677941e-001,-3.860533e-006,6.348300e-006
5.685882e-001,-1.846342e-006,6.342361e-006
5.693824e-001,-3.189136e-006,6.331317e-006
5.701765e-001,-6.881819e-006,6.319516e-006
5.709706e-001,-5.539025e-006,6.324625e-006
5.717647e-001,-5.539025e-006,6.329220e-006
5.725588e-001,-4.196231e-006,6.334378e-006
5.733529e-001,-5.874723e-006,6.336247e-006
5.741471e-001,-8.224612e-006,6.340494e-006
5.749412e-001,-6.210422e-006,6.353725e-006
5.757353e-001,-4.196231e-006,6.355702e-006
5.765294e-001,-6.210422e-006,6.352426e-006
5.773235e-001,-9.567407e-006,6.347791e-006
5.781176e-001,-7.721065e-006,6.363941e-006
5.789118e-001,-8.224612e-006,6.364583e-006
5.797059e-001,-6.210422e-006,6.361706e-006
5.805000e-001,-4.196231e-006,6.365428e-006
5.812941e-001,-3.860533e-006,6.360182e-006
5.820882e-001,-8.560311e-006,6.344080e-006
5.828824e-001,-1.091020e-005,6.345494e-006
5.836765e-001,-5.539025e-006,6.363455e-006
5.844706e-001,-2.853437e-006,6.352059e-006
5.852647e-001,-4.531929e-006,6.334236e-006
5.860588e-001,-7.385367e-006,6.333443e-006
5.868529e-001,-8.896010e-006,6.334661e-006
5.876471e-001,-4.196231e-006,6.342645e-006
5.884412e-001,-4.867628e-006,6.333981e-006
5.892353e-001,-6.210422e-006,6.315255e-006
5.900294e-001,-6.881819e-006,6.313038e-006
5.908235e-001,-7.553216e-006,6.316278e-006
5.916176e-001,-8.224612e-006,6.320403e-006
5.924118e-001,-9.567407e-006,6.331049e-006
5.932059e-001,-4.867628e-006,6.348089e-006
5.940000e-001,-7.553216e-006,6.343826e-006
5.947941e-001,-4.867628e-006,6.348464e-006
5.955882e-001,-4.196231e-006,6.348464e-006
5.963824e-001,-4.196231e-006,6.348464e-006
5.971765e-001,-8.392462e-007,6.343203e-006
5.979706e-001,-2.853437e-006,6.333691e-006
5.987647e-001,-5.706874e-006,6.331311e-006
5.995588e-001,-5.539025e-006,6.328724e-006
6.003529e-001,-7.553216e-006,6.333883e-006
6.011471e-001,-7.553216e-006,6.341846e-006
6.019412e-001,-7.217518e-006,6.344279e-006
6.027353e-001,-1.023880e-005,6.344279e-006
6.035294e-001,-7.553216e-006,6.353606e-006
6.043235e-001,-5.874723e-006,6.358236e-006
6.051176e-001,-7.553216e-006,6.354432e-006
6.059118e-001,-8.224612e-006,6.362785e-006
6.067059e-001,-8.224612e-006,6.372029e-006
6.075000e-001,-6.210422e-006,6.381259e-006
6.082941e-001,-6.210422e-006,6.384971e-006
6.090882e-001,-8.224612e-006,6.389466e-006
6.098824e-001,-1.057450e-005,6.399568e-006
6.106765e-001,-6.881819e-006,6.417769e-006
6.114706e-001,-6.546120e-006,6.423638e-006
6.122647e-001,-8.224612e-006,6.425705e-006
6.130588e-001,-4.867628e-006,6.425705e-006
6.138529e-001,-3.524834e-006,6.420955e-006
6.146471e-001,-4.196231e-006,6.409879e-006
6.154412e-001,-2.182040e-006,6.404669e-006
6.162353e-001,-1.846342e-006,6.399961e-006
6.170294e-001,-4.196231e-006,6.382553e-006
6.178235e-001,-4.531929e-006,6.375126e-006
6.186176e-001,-3.189136e-006,6.375858e-006
6.194118e-001,-4.196231e-006,6.377546e-006
6.202059e-001,-5.539025e-006,6.376027e-006
6.210000e-001,-7.888914e-006,6.375070e-006
6.217941e-001,-7.721065e-006,6.378784e-006
6.225882e-001,-3.524834e-006,6.387745e-006
6.233824e-001,-4.531929e-006,6.381224e-006
6.241765e-001,-5.203327e-006,6.373944e-006
6.249706e-001,-5.203327e-006,6.368874e-006
6.257647e-001,-7.553216e-006,6.371240e-006
6.265588e-001,-7.553216e-006,6.383452e-006
6.273529e-001,-5.874723e-006,6.390027e-006
6.281471e-001,-5.539025e-006,6.395529e-006
6.289412e-001,-6.210422e-006,6.401979e-006
6.297353e-001,-6.210422e-006,6.410999e-006
6.305294e-001,-3.524834e-006,6.415846e-006
6.313235e-001,-4.196231e-006,6.395375e-006
6.321176e-001,-5.874723e-006,6.373620e-006
6.329118e-001,-7.049668e-006,6.366690e-006
6.337059e-001,-5.035477e-006,6.359322e-006
6.345000e-001,-6.881819e-006,6.341916e-006
6.352941e-001,-8.560311e-006,6.338838e-006
6.360882e-001,-7.217518e-006,6.344158e-006
6.368824e-001,-4.196231e-006,6.349530e-006
6.376765e-001,-6.210422e-006,6.348004e-006
6.384706e-001,-3.524834e-006,6.352525e-006
6.392647e-001,-7.217518e-006,6.347947e-006
6.400588e-001,-5.539025e-006,6.345403e-006
6.408529e-001,-2.853437e-006,6.345403e-006
6.416471e-001,-4.867628e-006,6.341499e-006
6.424412e-001,-6.881819e-006,6.340650e-006
6.432353e-001,-6.546120e-006,6.340063e-006
6.440294e-001,-5.874723e-006,6.333131e-006
6.448235e-001,-4.196231e-006,6.329900e-006
6.456176e-001,-5.539025e-006,6.325647e-006
6.464118e-001,-7.553216e-006,6.325647e-006
6.472059e-001,-4.196231e-006,6.330297e-006
6.480000e-001,-5.539025e-006,6.326044e-006
6.487941e-001,-9.567407e-006,6.326044e-006
6.495882e-001,-6.881819e-006,6.343890e-006
6.503824e-001,-6.210422e-006,6.353726e-006
6.511765e-001,-6.881819e-006,6.353196e-006
6.519706e-001,-5.874723e-006,6.348110e-006
6.527647e-001,-6.881819e-006,6.343699e-006
6.535588e-001,-8.224612e-006,6.344830e-006
6.543529e-001,-5.874723e-006,6.357015e-006
6.551471e-001,-5.539025e-006,6.361248e-006
6.559412e-001,-7.553216e-006,6.363786e-006
6.567353e-001,-6.210422e-006,6.373648e-006
6.575294e-001,-6.210422e-006,6.378151e-006
6.583235e-001,-5.203327e-006,6.379164e-006
6.591176e-001,-4.196231e-006,6.372916e-006
6.599118e-001,-3.860533e-006,6.357523e-006
6.607059e-001,-4.196231e-006,6.355321e-006
6.615000e-001,-5.539025e-006,6.347276e-006
6.622941e-001,-6.881819e-006,6.349028e-006
6.630882e-001,-8.896010e-006,6.348442e-006
6.638824e-001,-8.896010e-006,6.353980e-006
6.646765e-001,-9.063859e-006,6.366112e-006
6.654706e-001,-7.553216e-006,6.378974e-006
6.662647e-001,-8.224612e-006,6.387295e-006
6.670588e-001,-1.023880e-005,6.394539e-006
6.678529e-001,-9.903105e-006,6.414713e-006
6.686471e-001,-8.896010e-006,6.438838e-006
6.694412e-001,-6.881819e-006,6.456371e-006
6.702353e-001,-6.881819e-006,6.462983e-006
6.710294e-001,-4.867628e-006,6.465655e-006
6.718235e-001,-6.042573e-006,6.461990e-006
6.726176e-001,-6.881819e-006,6.454315e-006
6.734118e-001,-5.874723e-006,6.458428e-006
6.742059e-001,-3.524834e-006,6.454092e-006
6.750000e-001,-5.539025e-006,6.444889e-006
6.757941e-001,-7.888914e-006,6.448118e-006
6.765882e-001,-3.189136e-006,6.458407e-006
6.773824e-001,-2.853437e-006,6.444221e-006
6.781765e-001,-2.182040e-006,6.430841e-006
6.789706e-001,-4.196231e-006,6.425313e-006
6.797647e-001,-6.546120e-006,6.417936e-006
6.805588e-001,-4.867628e-006,6.415642e-006
6.813529e-001,-4.364080e-006,6.412957e-006
6.821471e-001,-3.860533e-006,6.405341e-006
6.829412e-001,-7.888914e-006,6.387836e-006
6.837353e-001,-5.539025e-006,6.386487e-006
6.845294e-001,-5.539025e-006,6.369663e-006
6.853235e-001,-6.210422e-006,6.352793e-006
6.861176e-001,-4.531929e-006,6.345501e-006
6.869118e-001,-3.524834e-006,6.346236e-006
6.877059e-001,-4.867628e-006,6.347311e-006
6.885000e-001,-4.196231e-006,6.345558e-006
6.892941e-001,-5.035477e-006,6.336898e-006
6.900882e-001,-8.224612e-006,6.331366e-006
6.908824e-001,-1.091020e-005,6.330665e-006
6.916765e-001,-4.364080e-006,6.348667e-006
6.924706e-001,-4.867628e-006,6.348293e-006
6.932647e-001,-8.560311e-006,6.346067e-006
6.940588e-001,-6.881819e-006,6.357649e-006
6.948529e-001,-8.224612e-006,6.367464e-006
6.956471e-001,-7.888914e-006,6.375745e-006
6.964412e-001,-6.881819e-006,6.379459e-006
6.972353e-001,-7.553216e-006,6.374393e-006
6.980294e-001,-5.874723e-006,6.376814e-006
6.988235e-001,-5.874723e-006,6.376814e-006
6.996176e-001,-7.217518e-006,6.372422e-006
7.004118e-001,-7.217518e-006,6.367126e-006
7.012059e-001,-7.217518e-006,6.377039e-006
7.020000e-001,-7.217518e-006,6.384126e-006
7.027941e-001,-8.224612e-006,6.396931e-006
7.035882e-001,-8.560311e-006,6.411221e-006
7.043824e-001,-5.874723e-006,6.415250e-006
7.051765e-001,-1.510643e-006,6.407022e-006
7.059706e-001,-2.853437e-006,6.402483e-006
7.067647e-001,-3.356985e-006,6.390307e-006
7.075588e-001,-4.867628e-006,6.374837e-006
7.083529e-001,-2.517739e-006,6.371120e-006
7.091471e-001,-4.196231e-006,6.368302e-006
7.099412e-001,-6.378271e-006,6.368302e-006
7.107353e-001,-6.378271e-006,6.374745e-006
7.115294e-001,-5.539025e-006,6.382868e-006
7.123235e-001,-3.860533e-006,6.386128e-006
7.131176e-001,-4.196231e-006,6.383521e-006
7.139118e-001,-8.560311e-006,6.376096e-006
7.147059e-001,-7.217518e-006,6.380147e-006
7.155000e-001,-6.881819e-006,6.376265e-006
7.162941e-001,-8.224612e-006,6.376265e-006
7.170882e-001,-4.531929e-006,6.385489e-006
7.178824e-001,-5.539025e-006,6.378797e-006
7.186765e-001,-8.224612e-006,6.376828e-006
7.194706e-001,-6.210422e-006,6.381307e-006
7.202647e-001,-6.881819e-006,6.379114e-006
7.210588e-001,-6.881819e-006,6.386535e-006
7.218529e-001,-5.706874e-006,6.393949e-006
7.226471e-001,-7.553216e-006,6.392454e-006
7.234412e-001,-8.224612e-006,6.397057e-006
7.242353e-001,-6.881819e-006,6.401523e-006
7.250294e-001,-4.531929e-006,6.404718e-006
7.258235e-001,-6.210422e-006,6.388615e-006
7.266176e-001,-7.553216e-006,6.378495e-006
7.274118e-001,-6.210422e-006,6.380914e-006
7.282059e-001,-2.853437e-006,6.384625e-006
7.290000e-001,-4.196231e-006,6.385075e-006
7.297941e-001,-9.231709e-006,6.381814e-006
7.305882e-001,-6.881819e-006,6.386199e-006
7.313824e-001,-4.867628e-006,6.387864e-006
7.321765e-001,-2.182040e-006,6.376898e-006
7.329706e-001,-2.853437e-006,6.368451e-006
7.337647e-001,-1.846342e-006,6.353555e-006
7.345588e-001,-1.846342e-006,6.334547e-006
7.353529e-001,1.678492e-007,6.323490e-006
7.361471e-001,-3.021286e-006,6.303537e-006
7.369412e-001,-5.874723e-006,6.291419e-006
7.377353e-001,-7.217518e-006,6.280114e-006
7.385294e-001,-6.881819e-006,6.273253e-006
7.393235e-001,-5.035477e-006,6.268102e-006
7.401176e-001,-3.692683e-006,6.268524e-006
7.409118e-001,-6.210422e-006,6.267514e-006
7.417059e-001,-6.881819e-006,6.275240e-006
7.425000e-001,-6.210422e-006,6.287239e-006
7.432941e-001,-3.189136e-006,6.296423e-006
7.440882e-001,-6.881819e-006,6.295853e-006
7.448824e-001,-8.392462e-006,6.295853e-006
7.456765e-001,-6.881819e-006,6.293651e-006
7.464706e-001,-7.721065e-006,6.291198e-006
7.472647e-001,-1.023880e-005,6.301821e-006
7.480588e-001,-9.903105e-006,6.324504e-006
7.488529e-001,-9.567407e-006,6.337259e-006
7.496471e-001,-1.023880e-005,6.354283e-006
7.504412e-001,-9.567407e-006,6.379930e-006
7.512353e-001,-9.903105e-006,6.400205e-006
7.520294e-001,-1.023880e-005,6.421479e-006
7.528235e-001,-7.721065e-006,6.443071e-006
7.536176e-001,-9.063859e-006,6.447213e-006
7.544118e-001,-8.896010e-006,6.459913e-006
7.552059e-001,-9.567407e-006,6.470905e-006
7.560000e-001,-8.224612e-006,6.492223e-006
7.567941e-001,-5.035477e-006,6.501282e-006
7.575882e-001,-3.692683e-006,6.496996e-006
7.583824e-001,-5.539025e-006,6.486347e-006
7.591765e-001,-7.553216e-006,6.479240e-006
7.599706e-001,-7.553216e-006,6.487433e-006
7.607647e-001,-9.903105e-006,6.491967e-006
7.615588e-001,-8.896010e-006,6.506546e-006
7.623529e-001,-6.881819e-006,6.522247e-006
7.631471e-001,-3.189136e-006,6.528022e-006
7.639412e-001,-5.539025e-006,6.521091e-006
7.647353e-001,-8.224612e-006,6.521091e-006
7.655294e-001,-5.874723e-006,6.533298e-006
7.663235e-001,-4.196231e-006,6.534231e-006
7.671176e-001,-4.867628e-006,6.532749e-006
7.679118e-001,-5.539025e-006,6.517733e-006
7.687059e-001,-4.531929e-006,6.505883e-006
7.695000e-001,-2.853437e-006,6.499316e-006
7.702941e-001,-3.524834e-006,6.490806e-006
7.710882e-001,-4.196231e-006,6.482230e-006
7.718824e-001,-1.846342e-006,6.474917e-006
7.726765e-001,-2.182040e-006,6.465210e-006
7.734706e-001,-1.007095e-006,6.460545e-006
7.742647e-001,-4.196231e-006,6.453229e-006
7.750588e-001,-6.378271e-006,6.450002e-006
7.758529e-001,-3.860533e-006,6.447185e-006
7.766471e-001,-2.182040e-006,6.440278e-006
7.774412e-001,-2.182040e-006,6.437101e-006
7.782353e-001,-4.196231e-006,6.437582e-006
7.790294e-001,-4.867628e-006,6.441762e-006
7.798235e-001,-1.510643e-006,6.443266e-006
7.806176e-001,-3.189136e-006,6.430944e-006
7.814118e-001,-1.510643e-006,6.423908e-006
7.822059e-001,-3.524834e-006,6.411550e-006
7.830000e-001,-3.021286e-006,6.400458e-006
7.837941e-001,-3.692683e-006,6.387233e-006
7.845882e-001,-3.524834e-006,6.382982e-006
7.853824e-001,-3.692683e-006,6.384500e-006
7.861765e-001,-4.531929e-006,6.380247e-006
7.869706e-001,-7.553216e-006,6.368480e-006
7.877647e-001,-8.560311e-006,6.365831e-006
7.885588e-001,-6.881819e-006,6.376477e-006
7.893529e-001,-4.364080e-006,6.365436e-006
7.901471e-001,-8.224612e-006,6.336581e-006
7.909412e-001,-6.210422e-006,6.335164e-006
7.917353e-001,-5.539025e-006,6.321837e-006
7.925294e-001,-6.881819e-006,6.318771e-006
7.933235e-001,-4.531929e-006,6.323881e-006
7.941176e-001,-5.874723e-006,6.325924e-006
7.949118e-001,-7.553216e-006,6.326888e-006
7.957059e-001,-8.896010e-006,6.333521e-006
7.965000e-001,-8.224612e-006,6.339072e-006
7.972941e-001,-4.196231e-006,6.335426e-006
7.980882e-001,-3.524834e-006,6.327944e-006
7.988824e-001,-8.224612e-006,6.314034e-006
7.996765e-001,-7.888914e-006,6.308006e-006
8.004706e-001,-7.553216e-006,6.285777e-006
8.012647e-001,-1.158160e-005,6.280179e-006
8.020588e-001,-1.023880e-005,6.305879e-006
8.028529e-001,-9.567407e-006,6.322589e-006
8.036471e-001,-1.107805e-005,6.330623e-006
8.044412e-001,-9.567407e-006,6.356274e-006
8.052353e-001,-8.896010e-006,6.376062e-006
8.060294e-001,-1.158160e-005,6.383994e-006
8.068235e-001,-8.224612e-006,6.412265e-006
8.076176e-001,-8.392462e-006,6.417300e-006
8.084118e-001,-9.231709e-006,6.428050e-006
8.092059e-001,-1.124590e-005,6.447563e-006
8.100000e-001,-5.539025e-006,6.475369e-006
8.107941e-001,-6.378271e-006,6.478583e-006
8.115882e-001,-7.553216e-006,6.482757e-006
8.123824e-001,-6.210422e-006,6.482757e-006
8.131765e-001,-6.546120e-006,6.486410e-006
8.139706e-001,-3.860533e-006,6.495754e-006
8.147647e-001,-5.706874e-006,6.497411e-006
8.155588e-001,-4.196231e-006,6.492625e-006
8.163529e-001,-3.524834e-006,6.474468e-006
8.171471e-001,-4.196231e-006,6.472472e-006
8.179412e-001,-6.881819e-006,6.473138e-006
8.187353e-001,-7.553216e-006,6.483941e-006
8.195294e-001,-7.217518e-006,6.495443e-006
8.203235e-001,-5.539025e-006,6.496604e-006
8.211176e-001,-5.874723e-006,6.496604e-006
8.219118e-001,-8.224612e-006,6.497543e-006
8.227059e-001,-7.049668e-006,6.509793e-006
8.235000e-001,-7.553216e-006,6.513507e-006
8.242941e-001,-9.567407e-006,6.510917e-006
8.250882e-001,-6.881819e-006,6.523857e-006
8.258824e-001,-1.846342e-006,6.531115e-006
8.266765e-001,-1.846342e-006,6.522537e-006
8.274706e-001,-2.853437e-006,6.500987e-006
8.282647e-001,-4.867628e-006,6.488367e-006
8.290588e-001,-4.196231e-006,6.477572e-006
8.298529e-001,-3.860533e-006,6.472417e-006
8.306471e-001,-5.539025e-006,6.471751e-006
8.314412e-001,-2.517739e-006,6.475632e-006
8.322353e-001,-5.035477e-007,6.459151e-006
8.330294e-001,-4.196231e-006,6.429802e-006
8.338235e-001,-8.224612e-006,6.426564e-006
8.346176e-001,-4.867628e-006,6.441290e-006
8.354118e-001,-7.553216e-006,6.442070e-006
8.362059e-001,-8.560311e-006,6.442690e-006
8.370000e-001,-7.888914e-006,6.441241e-006
8.377941e-001,-5.539025e-006,6.452264e-006
8.385882e-001,-5.874723e-006,6.453988e-006
8.393824e-001,-3.189136e-006,6.452987e-006
8.401765e-001,-5.539025e-006,6.443804e-006
8.409706e-001,-5.539025e-006,6.437284e-006
8.417647e-001,-4.867628e-006,6.428134e-006
8.425588e-001,-6.546120e-006,6.411306e-006
8.433529e-001,-5.539025e-006,6.416063e-006
8.441471e-001,-6.881819e-006,6.409515e-006
8.449412e-001,-5.203327e-006,6.415392e-006
8.457353e-001,-6.546120e-006,6.417741e-006
8.465294e-001,-4.867628e-006,6.424001e-006
8.473235e-001,-4.867628e-006,6.429697e-006
8.481176e-001,-7.217518e-006,6.433548e-006
8.489118e-001,-5.539025e-006,6.438378e-006
8.497059e-001,-8.560311e-006,6.438378e-006
8.505000e-001,-1.040665e-005,6.442390e-006
8.512941e-001,-6.546120e-006,6.455045e-006
8.520882e-001,-4.196231e-006,6.452764e-006
8.528824e-001,-5.539025e-006,6.431204e-006
8.536765e-001,-5.874723e-006,6.424671e-006
8.544706e-001,-5.539025e-006,6.424671e-006
8.552647e-001,-4.531929e-006,6.418133e-006
8.560588e-001,-4.196231e-006,6.406435e-006
8.568529e-001,-3.860533e-006,6.393986e-006
8.576471e-001,-8.224612e-006,6.388090e-006
8.584412e-001,-5.539025e-006,6.395333e-006
8.592353e-001,-5.203327e-006,6.386123e-006
8.600294e-001,-4.867628e-006,6.364957e-006
8.608235e-001,-5.874723e-006,6.359034e-006
8.616176e-001,-5.539025e-006,6.356945e-006
8.624118e-001,-8.224612e-006,6.347680e-006
8.632059e-001,-9.567407e-006,6.358695e-006
8.640000e-001,-4.867628e-006,6.378476e-006
8.647941e-001,-2.517739e-006,6.379994e-006
8.655882e-001,-1.174945e-006,6.380388e-006
8.663824e-001,-3.860533e-006,6.379882e-006
8.671765e-001,-3.524834e-006,6.379207e-006
8.679706e-001,-2.182040e-006,6.377181e-006
8.687647e-001,-4.196231e-006,6.375831e-006
8.695588e-001,-4.531929e-006,6.375831e-006
8.703529e-001,-4.196231e-006,6.373297e-006
8.711471e-001,-6.881819e-006,6.362137e-006
8.719412e-001,-8.560311e-006,6.359070e-006
8.727353e-001,-7.553216e-006,6.374290e-006
8.735294e-001,-9.567407e-006,6.383405e-006
8.743235e-001,-8.224612e-006,6.399464e-006
8.751176e-001,-6.546120e-006,6.409551e-006
8.759118e-001,-4.196231e-006,6.406022e-006
8.767059e-001,-4.531929e-006,6.396210e-006
8.775000e-001,-5.539025e-006,6.392730e-006
8.782941e-001,-6.210422e-006,6.392730e-006
8.790882e-001,-6.881819e-006,6.392730e-006
8.798824e-001,-8.224612e-006,6.394920e-006
8.806765e-001,-1.023880e-005,6.408655e-006
8.814706e-001,-8.224612e-006,6.430291e-006
8.822647e-001,-5.539025e-006,6.438490e-006
8.830588e-001,-3.524834e-006,6.433786e-006
8.838529e-001,-4.196231e-006,6.430584e-006
8.846471e-001,-5.539025e-006,6.423213e-006
8.854412e-001,-5.203327e-006,6.412643e-006
8.862353e-001,-5.539025e-006,6.406428e-006
8.870294e-001,-4.867628e-006,6.409677e-006
8.878235e-001,-4.867628e-006,6.405980e-006
8.886176e-001,-2.853437e-006,6.408781e-006
8.894118e-001,-7.553216e-006,6.397851e-006
8.902059e-001,-6.210422e-006,6.404411e-006
8.910000e-001,-6.210422e-006,6.411972e-006
8.917941e-001,-5.874723e-006,6.415665e-006
8.925882e-001,-6.881819e-006,6.412476e-006
8.933824e-001,-7.888914e-006,6.413595e-006
8.941765e-001,-9.567407e-006,6.420474e-006
8.949706e-001,-7.553216e-006,6.438783e-006
8.957647e-001,-8.224612e-006,6.445301e-006
8.965588e-001,-5.874723e-006,6.447917e-006
8.973529e-001,-6.546120e-006,6.452090e-006
8.981471e-001,-9.231709e-006,6.455094e-006
8.989412e-001,-7.217518e-006,6.453537e-006
8.997353e-001,-6.210422e-006,6.454704e-006
9.005294e-001,-5.874723e-006,6.454704e-006
9.013235e-001,-6.210422e-006,6.451534e-006
9.021176e-001,-6.546120e-006,6.452535e-006
9.029118e-001,-4.867628e-006,6.451423e-006
9.037059e-001,-4.867628e-006,6.440566e-006
9.045000e-001,-6.881819e-006,6.437891e-006
9.052941e-001,-4.867628e-006,6.442014e-006
9.060882e-001,-4.867628e-006,6.433764e-006
9.068824e-001,-8.224612e-006,6.430081e-006
9.076765e-001,-7.888914e-006,6.437277e-006
9.084706e-001,-4.196231e-006,6.445969e-006
9.092647e-001,-5.539025e-006,6.445969e-006
9.100588e-001,-2.182040e-006,6.449865e-006
9.108529e-001,-3.356985e-007,6.446692e-006
9.116471e-001,-2.182040e-006,6.439137e-006
9.124412e-001,-6.210422e-006,6.428594e-006
9.132353e-001,-5.203327e-006,6.418537e-006
9.140294e-001,-4.196231e-006,6.405608e-006
9.148235e-001,-4.196231e-006,6.389543e-006
9.156176e-001,-7.049668e-006,6.379706e-006
9.164118e-001,-5.539025e-006,6.375225e-006
9.172059e-001,-4.531929e-006,6.356676e-006
9.180000e-001,-6.210422e-006,6.337224e-006
9.187941e-001,-6.881819e-006,6.327022e-006
9.195882e-001,-8.224612e-006,6.327022e-006
9.203824e-001,-5.874723e-006,6.332125e-006
9.211765e-001,-4.867628e-006,6.334846e-006
9.219706e-001,-4.867628e-006,6.331622e-006
9.227647e-001,-7.553216e-006,6.325668e-006
9.235588e-001,-6.881819e-006,6.331339e-006
9.243529e-001,-5.874723e-006,6.340119e-006
9.251471e-001,-4.364080e-006,6.341081e-006
9.259412e-001,-7.217518e-006,6.330226e-006
9.267353e-001,-5.874723e-006,6.340763e-006
9.275294e-001,-5.539025e-006,6.347382e-006
9.283235e-001,-7.888914e-006,6.353881e-006
9.291176e-001,-7.553216e-006,6.365055e-006
9.299118e-001,-8.224612e-006,6.368607e-006
9.307059e-001,-4.531929e-006,6.379586e-006
9.315000e-001,-7.553216e-006,6.379959e-006
9.322941e-001,-7.217518e-006,6.390469e-006
9.330882e-001,-6.210422e-006,6.387942e-006
9.338824e-001,-5.874723e-006,6.389908e-006
9.346765e-001,-7.217518e-006,6.390863e-006
9.354706e-001,-3.524834e-006,6.394232e-006
9.362647e-001,-4.867628e-006,6.392211e-006
9.370588e-001,-7.217518e-006,6.395017e-006
9.378529e-001,-8.560311e-006,6.402085e-006
9.386471e-001,-1.040665e-005,6.415916e-006
9.394412e-001,-1.225299e-005,6.436469e-006
9.402353e-001,-1.040665e-005,6.456844e-006
9.410294e-001,-1.158160e-005,6.454197e-006
9.418235e-001,-1.057450e-005,6.482529e-006
9.426176e-001,-9.567407e-006,6.504140e-006
9.434118e-001,-8.224612e-006,6.508608e-006
9.442059e-001,-7.888914e-006,6.513569e-006
9.450000e-001,-5.539025e-006,6.512246e-006
9.457941e-001,-8.392462e-007,6.504526e-006
9.465882e-001,-1.678492e-007,6.493095e-006
9.473824e-001,-8.392462e-007,6.479095e-006
9.481765e-001,1.846342e-006,6.470781e-006
9.489706e-001,-1.678492e-007,6.463123e-006
9.497647e-001,-5.539025e-006,6.450282e-006
9.505588e-001,-1.191730e-005,6.444995e-006
9.513529e-001,-9.735256e-006,6.467175e-006
9.521471e-001,-8.560311e-006,6.477676e-006
9.529412e-001,-1.191730e-005,6.479061e-006
9.537353e-001,-1.023880e-005,6.495934e-006
9.545294e-001,-8.896010e-006,6.513149e-006
9.553235e-001,-7.553216e-006,6.531912e-006
9.561176e-001,-9.231709e-006,6.543824e-006
9.569118e-001,-5.874723e-006,6.561796e-006
9.577059e-001,-4.867628e-006,6.564420e-006
9.585000e-001,-5.035477e-006,6.568629e-006
9.592941e-001,-6.210422e-006,6.570507e-006
9.600882e-001,-4.196231e-006,6.569995e-006
9.608824e-001,-2.182040e-006,6.564400e-006
9.616765e-001,-2.853437e-006,6.558110e-006
9.624706e-001,-3.692683e-006,6.556468e-006
9.632647e-001,-3.021286e-006,6.555503e-006
9.640588e-001,-4.196231e-006,6.539902e-006
9.648529e-001,-4.196231e-006,6.531500e-006
9.656471e-001,-1.846342e-006,6.524243e-006
9.664412e-001,-4.196231e-006,6.508546e-006
9.672353e-001,-6.210422e-006,6.507829e-006
9.680294e-001,-7.553216e-006,6.509759e-006
9.688235e-001,-7.553216e-006,6.507167e-006
9.696176e-001,-7.217518e-006,6.511688e-006
9.704118e-001,-6.881819e-006,6.512846e-006
9.712059e-001,-8.560311e-006,6.512846e-006
9.720000e-001,-8.224612e-006,6.522792e-006
9.727941e-001,-6.881819e-006,6.525377e-006
9.735882e-001,-5.874723e-006,6.520425e-006
9.743824e-001,-7.385367e-006,6.517287e-006
9.751765e-001,-1.023880e-005,6.525590e-006
9.759706e-001,-1.158160e-005,6.541740e-006
9.767647e-001,-1.091020e-005,6.560476e-006
9.775588e-001,-1.040665e-005,6.579977e-006
9.783529e-001,-7.049668e-006,6.604170e-006
9.791471e-001,4.531929e-006,6.611903e-006
9.799412e-001,6.546120e-006,6.596306e-006
9.807353e-001,1.779202e-005,6.595218e-006
9.815294e-001,2.366674e-005,6.665552e-006
9.823235e-001,5.203327e-006,6.796928e-006
9.831176e-001,-4.531929e-006,6.801361e-006
9.839118e-001,-5.539025e-006,6.805371e-006
9.847059e-001,-9.063859e-006,6.811749e-006
9.855000e-001,-9.567407e-006,6.830920e-006
9.862941e-001,-1.158160e-005,6.850103e-006
9.870882e-001,-1.191730e-005,6.873222e-006
9.878824e-001,-7.217518e-006,6.894024e-006
9.886765e-001,-7.553216e-006,6.895117e-006
9.894706e-001,-1.040665e-005,6.902433e-006
9.902647e-001,-9.231709e-006,6.924237e-006
9.910588e-001,-1.023880e-005,6.934958e-006
9.918529e-001,-9.903105e-006,6.948142e-006
9.926471e-001,-1.661708e-005,6.961765e-006
9.934412e-001,-2.333104e-005,7.022334e-006
9.942353e-001,-3.138781e-005,7.134136e-006
9.950294e-001,-3.390555e-005,7.335473e-006
9.958235e-001,-3.508049e-005,7.570960e-006
9.966176e-001,-3.474479e-005,7.813374e-006
9.974118e-001,-3.071641e-005,8.034895e-006
9.982059e-001,-2.500954e-005,8.200731e-006
9.990000e-001,-2.030976e-005,8.303760e-006
9.997941e-001,-1.191730e-005,8.362548e-006
1.000588e+000,-6.881819e-006,8.372156e-006
1.001382e+000,-8.560311e-006,8.362505e-006
1.002176e+000,-1.225299e-005,8.356495e-006
1.002971e+000,-1.493858e-005,8.373726e-006
1.003765e+000,5.203327e-006,8.400498e-006
1.004559e+000,1.359579e-005,8.390622e-006
1.005353e+000,3.189136e-006,8.408312e-006
1.006147e+000,3.440909e-005,8.397421e-006
1.006941e+000,3.810178e-005,8.614325e-006
1.007735e+000,6.260777e-005,8.876179e-006
1.008529e+000,1.005417e-004,9.548407e-006
1.009324e+000,1.863127e-005,1.109880e-005
1.010118e+000,-7.536431e-005,1.114034e-005
1.010912e+000,-8.812085e-005,1.191148e-005
1.011706e+000,-1.510643e-006,1.289812e-005
1.012500e+000,1.085985e-004,1.289256e-005
1.013294e+000,9.852750e-005,1.427393e-005
1.014088e+000,2.870222e-005,1.531546e-005
1.014882e+000,2.064546e-005,1.539388e-005
1.015676e+000,2.601663e-005,1.543435e-005
1.016471e+000,1.174945e-006,1.550221e-005
1.017265e+000,-1.493858e-005,1.549992e-005
1.018059e+000,-1.896696e-005,1.551968e-005
1.018853e+000,-3.860533e-006,1.555445e-005
1.019647e+000,-3.524834e-006,1.555514e-005
1.020441e+000,-2.198825e-005,1.555514e-005
1.021235e+000,-2.803082e-005,1.560276e-005
1.022029e+000,-3.239490e-005,1.568240e-005
1.022824e+000,-3.709468e-005,1.578811e-005
1.023618e+000,-3.524834e-005,1.592619e-005
1.024412e+000,-3.071641e-005,1.604818e-005
1.025206e+000,-2.870222e-005,1.613752e-005
1.026000e+000,-2.702373e-005,1.621714e-005
1.026794e+000,-2.870222e-005,1.628822e-005
1.027588e+000,-2.719158e-005,1.636810e-005
1.028382e+000,-2.870222e-005,1.643817e-005
1.029176e+000,-2.668803e-005,1.651549e-005
1.029971e+000,-2.433814e-005,1.658380e-005
1.030765e+000,-2.098116e-005,1.663961e-005
1.031559e+000,-1.896696e-005,1.668146e-005
1.032353e+000,-1.963836e-005,1.671458e-005
1.033147e+000,-1.527428e-005,1.675042e-005
1.033941e+000,-1.661708e-005,1.677129e-005
1.034735e+000,-1.762417e-005,1.679631e-005
1.035529e+000,-9.567407e-006,1.682444e-005
1.036324e+000,-7.553216e-006,1.683115e-005
1.037118e+000,-9.903105e-006,1.683115e-005
1.037912e+000,-6.546120e-006,1.683350e-005
1.038706e+000,-3.524834e-006,1.683307e-005
1.039500e+000,-3.860533e-006,1.683245e-005
1.040294e+000,-4.196231e-006,1.682746e-005
1.041088e+000,-3.189136e-006,1.682547e-005
1.041882e+000,-3.021286e-006,1.682353e-005
1.042676e+000,-3.524834e-006,1.681991e-005
1.043471e+000,-3.189136e-006,1.681915e-005
1.044265e+000,-3.860533e-006,1.681684e-005
1.045059e+000,-6.881819e-006,1.681285e-005
1.045853e+000,-4.364080e-006,1.680984e-005
1.046647e+000,-1.510643e-006,1.680523e-005
1.047441e+000,-1.846342e-006,1.680378e-005
1.048235e+000,-1.510643e-006,1.680293e-005
1.049029e+000,-8.392462e-007,1.679673e-005
1.049824e+000,-2.853437e-006,1.679090e-005
1.050618e+000,-1.846342e-006,1.678626e-005
1.051412e+000,-2.853437e-006,1.677385e-005
1.052206e+000,-2.182040e-006,1.676467e-005
1.053000e+000,-8.392462e-007,1.675643e-005
1.053794e+000,-1.510643e-006,1.674483e-005
1.054588e+000,1.174945e-006,1.673634e-005
1.055382e+000,3.356985e-007,1.672894e-005
1.056176e+000,-1.510643e-006,1.671618e-005
1.056971e+000,-1.510643e-006,1.670995e-005
1.057765e+000,-5.035477e-007,1.670345e-005
1.058559e+000,1.846342e-006,1.669535e-005
1.059353e+000,5.035477e-007,1.668361e-005
1.060147e+000,-5.035477e-007,1.668071e-005
1.060941e+000,-1.510643e-006,1.667685e-005
1.061735e+000,-1.846342e-006,1.667161e-005
1.062529e+000,-1.846342e-006,1.666826e-005
1.063324e+000,-2.182040e-006,1.666449e-005
1.064118e+000,-2.853437e-006,1.666352e-005
1.064912e+000,-5.035477e-006,1.666118e-005
1.065706e+000,-4.867628e-006,1.666192e-005
1.066500e+000,-7.553216e-006,1.666300e-005
1.067294e+000,-7.553216e-006,1.666677e-005
1.068088e+000,-2.853437e-006,1.666770e-005
1.068882e+000,-6.210422e-006,1.666302e-005
1.069676e+000,-4.531929e-006,1.666173e-005
1.070471e+000,-2.517739e-006,1.666076e-005
1.071265e+000,-6.881819e-006,1.665807e-005
1.072059e+000,-8.224612e-006,1.665613e-005
1.072853e+000,-6.881819e-006,1.665785e-005
1.073647e+000,-7.553216e-006,1.665692e-005
1.074441e+000,-7.553216e-006,1.665362e-005
1.075235e+000,-8.224612e-006,1.665455e-005
1.076029e+000,-6.881819e-006,1.666069e-005
1.076824e+000,-8.224612e-006,1.666489e-005
1.077618e+000,-8.896010e-006,1.667057e-005
1.078412e+000,-7.721065e-006,1.667587e-005
1.079206e+000,-6.881819e-006,1.667988e-005
1.080000e+000,-6.210422e-006,1.668298e-005
1.080794e+000,-6.210422e-006,1.668373e-005
1.081588e+000,-9.063859e-006,1.668681e-005
1.082382e+000,-1.158160e-005,1.669462e-005
1.083176e+000,-8.896010e-006,1.670573e-005
1.083971e+000,-6.881819e-006,1.670683e-005
1.084765e+000,-6.881819e-006,1.670908e-005
1.085559e+000,-8.224612e-006,1.670816e-005
1.086353e+000,-9.903105e-006,1.670762e-005
1.087147e+000,-4.196231e-006,1.671104e-005
1.087941e+000,-3.524834e-006,1.670979e-005
1.088735e+000,-6.210422e-006,1.670769e-005
1.089529e+000,-6.546120e-006,1.671039e-005
1.090324e+000,-4.196231e-006,1.671155e-005
1.091118e+000,-7.217518e-006,1.671031e-005
1.091912e+000,-8.560311e-006,1.671301e-005
1.092706e+000,-6.881819e-006,1.671591e-005
1.093500e+000,-3.524834e-006,1.671750e-005
1.094294e+000,-4.364080e-006,1.671417e-005
1.095088e+000,-3.524834e-006,1.671341e-005
1.095882e+000,-2.853437e-006,1.671051e-005
1.096676e+000,-6.881819e-006,1.670903e-005
1.097471e+000,-6.210422e-006,1.671128e-005
1.098265e+000,-5.874723e-006,1.671000e-005
1.099059e+000,-8.560311e-006,1.671036e-005
1.099853e+000,-8.560311e-006,1.671036e-005
1.100647e+000,-2.182040e-006,1.670702e-005
1.101441e+000,-2.517739e-006,1.670339e-005
1.102235e+000,-1.510643e-006,1.670232e-005
1.103029e+000,-4.531929e-006,1.669961e-005
1.103824e+000,-7.888914e-006,1.669828e-005
1.104618e+000,-8.896010e-006,1.670128e-005
1.105412e+000,-8.224612e-006,1.670687e-005
1.106206e+000,-9.567407e-006,1.671164e-005
1.107000e+000,-8.896010e-006,1.671894e-005
1.107794e+000,-8.224612e-006,1.672003e-005
1.108588e+000,-7.553216e-006,1.672355e-005
1.109382e+000,-5.035477e-006,1.672641e-005
1.110176e+000,-6.210422e-006,1.672657e-005
1.110971e+000,-4.867628e-006,1.672695e-005
1.111765e+000,-4.867628e-006,1.672629e-005
1.112559e+000,-5.539025e-006,1.672210e-005
1.113353e+000,-8.224612e-006,1.671631e-005
1.114147e+000,-5.035477e-006,1.672049e-005
1.114941e+000,-5.539025e-006,1.672230e-005
1.115735e+000,-6.881819e-006,1.672509e-005
1.116529e+000,-7.888914e-006,1.672818e-005
1.117324e+000,-7.217518e-006,1.673293e-005
1.118118e+000,-4.364080e-006,1.673743e-005
1.118912e+000,-5.539025e-006,1.673757e-005
1.119706e+000,-4.196231e-006,1.673853e-005
1.120500e+000,-5.874723e-006,1.673853e-005
1.121294e+000,-6.210422e-006,1.673731e-005
1.122088e+000,-5.874723e-006,1.673400e-005
1.122882e+000,-6.881819e-006,1.673186e-005
1.123676e+000,-5.539025e-006,1.672766e-005
1.124471e+000,-6.210422e-006,1.672414e-005
1.125265e+000,-6.881819e-006,1.672373e-005
1.126059e+000,-2.517739e-006,1.672656e-005
1.126853e+000,-4.867628e-006,1.672521e-005
1.127647e+000,-7.721065e-006,1.672454e-005
1.128441e+000,-8.224612e-006,1.672655e-005
1.129235e+000,-5.874723e-006,1.672848e-005
1.130029e+000,-7.553216e-006,1.672533e-005
1.130824e+000,-7.553216e-006,1.672077e-005
1.131618e+000,-5.539025e-006,1.671977e-005
1.132412e+000,-8.560311e-006,1.671976e-005
1.133206e+000,-6.881819e-006,1.672556e-005
1.134000e+000,-6.881819e-006,1.672839e-005
1.134794e+000,-5.539025e-006,1.672998e-005
1.135588e+000,-5.874723e-006,1.673032e-005
1.136382e+000,-5.203327e-006,1.673069e-005
1.137176e+000,-4.867628e-006,1.673101e-005
1.137971e+000,-2.182040e-006,1.673101e-005
1.138765e+000,-4.531929e-006,1.673069e-005
1.139559e+000,-6.210422e-006,1.672721e-005
1.140353e+000,-7.553216e-006,1.672721e-005
1.141147e+000,-4.364080e-006,1.672897e-005
1.141941e+000,-4.531929e-006,1.672750e-005
1.142735e+000,-4.196231e-006,1.672495e-005
1.143529e+000,-5.539025e-006,1.672070e-005
1.144324e+000,-8.224612e-006,1.671490e-005
1.145118e+000,-9.903105e-006,1.671591e-005
1.145912e+000,-1.023880e-005,1.671881e-005
1.146706e+000,-6.881819e-006,1.672550e-005
1.147500e+000,-7.888914e-006,1.672593e-005
1.148294e+000,-5.539025e-006,1.672374e-005
1.149088e+000,-3.860533e-006,1.672170e-005
1.149882e+000,-6.210422e-006,1.671945e-005
1.150676e+000,-8.560311e-006,1.671984e-005
1.151471e+000,-8.896010e-006,1.672314e-005
1.152265e+000,-6.210422e-006,1.672660e-005
1.153059e+000,-6.546120e-006,1.672801e-005
1.153853e+000,-6.881819e-006,1.672984e-005
1.154647e+000,-6.881819e-006,1.672984e-005
1.155441e+000,-9.063859e-006,1.673209e-005
1.156235e+000,-6.881819e-006,1.673765e-005
1.157029e+000,-3.860533e-006,1.673572e-005
1.157824e+000,-4.364080e-006,1.673122e-005
1.158618e+000,-4.531929e-006,1.673136e-005
1.159412e+000,-1.510643e-006,1.673039e-005
1.160206e+000,-1.510643e-006,1.673016e-005
1.161000e+000,-4.531929e-006,1.673036e-005
1.161794e+000,-4.531929e-006,1.673186e-005
1.162588e+000,-4.196231e-006,1.673015e-005
1.163382e+000,-4.196231e-006,1.672924e-005
1.164176e+000,-2.853437e-006,1.672924e-005
1.164971e+000,-2.182040e-006,1.672834e-005
1.165765e+000,-3.524834e-006,1.672407e-005
1.166559e+000,-4.867628e-006,1.672233e-005
1.167353e+000,-4.196231e-006,1.672263e-005
1.168147e+000,-1.846342e-006,1.672063e-005
1.168941e+000,-4.531929e-006,1.671645e-005
1.169735e+000,-3.524834e-006,1.671196e-005
1.170529e+000,-5.539025e-006,1.670985e-005
1.171324e+000,-8.896010e-006,1.671052e-005
1.172118e+000,-5.203327e-006,1.671580e-005
1.172912e+000,-5.874723e-006,1.671295e-005
1.173706e+000,-7.888914e-006,1.671172e-005
1.174500e+000,-1.225299e-005,1.671436e-005
1.175294e+000,-7.888914e-006,1.672685e-005
1.176088e+000,-9.567407e-006,1.672781e-005
1.176882e+000,-7.553216e-006,1.673324e-005
1.177676e+000,-7.217518e-006,1.673575e-005
1.178471e+000,-7.553216e-006,1.673478e-005
1.179265e+000,-9.735256e-006,1.673478e-005
1.180059e+000,-8.560311e-006,1.673737e-005
1.180853e+000,-5.874723e-006,1.674238e-005
1.181647e+000,-6.210422e-006,1.674024e-005
1.182441e+000,-5.539025e-006,1.673895e-005
1.183235e+000,-5.539025e-006,1.673820e-005
1.184029e+000,-6.210422e-006,1.673784e-005
1.184824e+000,-5.706874e-006,1.673655e-005
1.185618e+000,-7.553216e-006,1.673847e-005
1.186412e+000,-6.881819e-006,1.674164e-005
1.187206e+000,-5.539025e-006,1.674119e-005
1.188000e+000,-5.874723e-006,1.673714e-005
1.188794e+000,-6.881819e-006,1.673012e-005
1.189588e+000,-7.217518e-006,1.672033e-005
1.190382e+000,-6.210422e-006,1.671498e-005
1.191176e+000,-5.203327e-006,1.670587e-005
1.191971e+000,-7.888914e-006,1.669779e-005
1.192765e+000,-5.203327e-006,1.669500e-005
1.193559e+000,-4.196231e-006,1.669113e-005
1.194353e+000,-5.203327e-006,1.668687e-005
1.195147e+000,-4.196231e-006,1.668653e-005
1.195941e+000,-1.174945e-006,1.668814e-005
1.196735e+000,-1.174945e-006,1.668827e-005
1.197529e+000,-5.539025e-006,1.668833e-005
1.198324e+000,-8.560311e-006,1.669093e-005
1.199118e+000,-5.539025e-006,1.669792e-005
1.199912e+000,-5.874723e-006,1.669792e-005
1.200706e+000,-7.721065e-006,1.668767e-005
1.201500e+000,-6.546120e-006,1.668431e-005
1.202294e+000,-5.539025e-006,1.668141e-005
1.203088e+000,-6.546120e-006,1.667077e-005
1.203882e+000,-6.881819e-006,1.666485e-005
1.204676e+000,-6.881819e-006,1.666182e-005
1.205471e+000,-7.553216e-006,1.666089e-005
1.206265e+000,-6.210422e-006,1.665820e-005
1.207059e+000,-6.881819e-006,1.665858e-005
1.207853e+000,-4.867628e-006,1.666085e-005
1.208647e+000,-3.189136e-006,1.666069e-005
1.209441e+000,-4.531929e-006,1.665797e-005
1.210235e+000,-7.888914e-006,1.665825e-005
1.211029e+000,-4.364080e-006,1.666375e-005
1.211824e+000,-4.531929e-006,1.666479e-005
1.212618e+000,-3.524834e-006,1.666545e-005
1.213412e+000,-2.517739e-006,1.666576e-005
1.214206e+000,-4.531929e-006,1.666468e-005
1.215000e+000,-7.217518e-006,1.666496e-005
1.215794e+000,-6.210422e-006,1.666962e-005
1.216588e+000,-4.196231e-006,1.667162e-005
1.217382e+000,-2.853437e-006,1.666962e-005
1.218176e+000,-5.874723e-006,1.666494e-005
1.218971e+000,-5.203327e-006,1.666279e-005
1.219765e+000,-8.224612e-006,1.666040e-005
1.220559e+000,-9.903105e-006,1.666234e-005
1.221353e+000,-8.560311e-006,1.666471e-005
1.222147e+000,-5.539025e-006,1.666524e-005
1.222941e+000,-6.210422e-006,1.666365e-005
1.223735e+000,-4.867628e-006,1.666404e-005
1.224529e+000,-6.881819e-006,1.666109e-005
1.225324e+000,-5.539025e-006,1.665560e-005
1.226118e+000,-4.531929e-006,1.664570e-005
1.226912e+000,-6.210422e-006,1.663628e-005
1.227706e+000,-5.539025e-006,1.662960e-005
1.228500e+000,-6.881819e-006,1.662778e-005
1.229294e+000,-4.531929e-006,1.663035e-005
1.230088e+000,-3.524834e-006,1.662821e-005
1.230882e+000,-3.524834e-006,1.659906e-005
1.231676e+000,-6.881819e-006,1.654644e-005
1.232471e+000,-7.217518e-006,1.654839e-005
1.233265e+000,-5.539025e-006,1.655143e-005
1.234059e+000,-2.853437e-006,1.655143e-005
1.234853e+000,-4.531929e-006,1.654431e-005
1.235647e+000,-3.524834e-006,1.653747e-005
1.236441e+000,-6.881819e-006,1.652575e-005
1.237235e+000,-6.210422e-006,1.651662e-005
1.238029e+000,-6.881819e-006,1.651532e-005
1.238824e+000,-6.881819e-006,1.651439e-005
1.239618e+000,-8.560311e-006,1.650851e-005
1.240412e+000,-1.393149e-005,1.650736e-005
1.241206e+000,-1.258869e-005,1.651597e-005
1.242000e+000,-9.231709e-006,1.652179e-005
1.242794e+000,-8.560311e-006,1.650338e-005
1.243588e+000,-9.567407e-006,1.645787e-005
1.244382e+000,-4.867628e-006,1.637117e-005
1.245176e+000,-8.224612e-006,1.626129e-005
1.245971e+000,-6.210422e-006,1.614701e-005
1.246765e+000,-7.217518e-006,1.603135e-005
1.247559e+000,-1.091020e-005,1.594256e-005
1.248353e+000,-5.706874e-006,1.589189e-005
1.249147e+000,-8.392462e-007,1.585378e-005
1.249941e+000,-4.196231e-006,1.583958e-005
1.250735e+000,-5.035477e-006,1.583659e-005
1.251529e+000,-2.182040e-006,1.583177e-005
1.252324e+000,-3.189136e-006,1.581714e-005
1.253118e+000,-8.560311e-006,1.579568e-005
1.253912e+000,-6.546120e-006,1.580034e-005
1.254706e+000,-3.524834e-006,1.578602e-005
1.255500e+000,-2.853437e-006,1.578625e-005
1.256294e+000,-2.517739e-006,1.566720e-005
1.257088e+000,-4.196231e-006,1.551960e-005
1.257882e+000,-4.364080e-006,1.511393e-005
1.258676e+000,-4.364080e-006,1.401065e-005
1.259471e+000,-4.867628e-006,1.397331e-005
1.260265e+000,-8.896010e-006,1.331317e-005
1.261059e+000,-8.896010e-006,1.235970e-005
1.261853e+000,-6.210422e-006,1.236960e-005
1.262647e+000,-6.210422e-006,1.075037e-005
1.263441e+000,-1.023880e-005,9.207457e-006
1.264235e+000,-8.224612e-006,9.082263e-006
1.265029e+000,-7.217518e-006,9.019173e-006
1.265824e+000,-4.867628e-006,8.908185e-006
1.266618e+000,-4.867628e-006,8.912173e-006
1.267412e+000,-7.217518e-006,8.876462e-006
1.268206e+000,-5.539025e-006,8.821099e-006
1.269000e+000,-4.699779e-006,8.823947e-006
1.269794e+000,-8.560311e-006,8.825691e-006
1.270588e+000,-8.392462e-006,8.751367e-006
1.271382e+000,-9.231709e-006,8.620234e-006
1.272176e+000,-6.210422e-006,8.440244e-006
1.272971e+000,-4.867628e-006,8.184029e-006
1.273765e+000,-6.881819e-006,7.943359e-006
1.274559e+000,-7.049668e-006,7.761638e-006
1.275353e+000,-5.874723e-006,7.601162e-006
1.276147e+000,-6.881819e-006,7.453981e-006
1.276941e+000,-8.224612e-006,7.286223e-006
1.277735e+000,-8.224612e-006,7.137910e-006
1.278529e+000,-9.567407e-006,6.967177e-006
1.279324e+000,-5.874723e-006,6.823837e-006
1.280118e+000,-3.524834e-006,6.692400e-006
1.280912e+000,-1.174945e-006,6.589829e-006
1.281706e+000,-2.182040e-006,6.502657e-006
1.282500e+000,-3.189136e-006,6.408704e-006
1.283294e+000,-4.867628e-006,6.353021e-006
1.284088e+000,-4.196231e-006,6.289431e-006
1.284882e+000,-5.539025e-006,6.214806e-006
1.285676e+000,-6.210422e-006,6.199194e-006
1.286471e+000,-3.524834e-006,6.194445e-006
1.287265e+000,-5.539025e-006,6.172389e-006
1.288059e+000,-6.546120e-006,6.169248e-006
1.288853e+000,-7.217518e-006,6.177097e-006
1.289647e+000,-7.553216e-006,6.186676e-006
1.290441e+000,-9.735256e-006,6.196820e-006
1.291235e+000,-1.124590e-005,6.218522e-006
1.292029e+000,-9.567407e-006,6.248497e-006
1.292824e+000,-8.224612e-006,6.268625e-006
1.293618e+000,-8.560311e-006,6.283208e-006
1.294412e+000,-7.049668e-006,6.297984e-006
1.295206e+000,-5.874723e-006,6.298575e-006
1.296000e+000,-4.196231e-006,6.302485e-006
1.296794e+000,-4.867628e-006,6.306356e-006
1.297588e+000,-5.035477e-007,6.311476e-006
1.298382e+000,-3.524834e-006,6.310964e-006
1.299176e+000,-3.860533e-006,6.313920e-006
1.299971e+000,-1.678492e-006,6.315625e-006
1.300765e+000,-1.174945e-006,6.315476e-006
1.301559e+000,-1.510643e-006,6.313771e-006
1.302353e+000,-4.196231e-006,6.313146e-006
1.303147e+000,-5.539025e-006,6.317408e-006
1.303941e+000,-4.196231e-006,6.324562e-006
1.304735e+000,-4.196231e-006,6.328647e-006
1.305529e+000,-4.531929e-006,6.333047e-006
1.306324e+000,-4.196231e-006,6.337636e-006
1.307118e+000,-7.049668e-006,6.341485e-006
1.307912e+000,-6.378271e-006,6.353889e-006
1.308706e+000,-7.721065e-006,6.363223e-006
1.309500e+000,-6.546120e-006,6.378061e-006
1.310294e+000,-9.063859e-006,6.388687e-006
1.311088e+000,-1.023880e-005,6.408563e-006
1.311882e+000,-9.063859e-006,6.433715e-006
1.312676e+000,-8.896010e-006,6.453176e-006
1.313471e+000,-7.553216e-006,6.471502e-006
1.314265e+000,-8.560311e-006,6.483525e-006
1.315059e+000,-6.881819e-006,6.495285e-006
1.315853e+000,-7.553216e-006,6.501084e-006
1.316647e+000,-7.553216e-006,6.501084e-006
1.317441e+000,-7.721065e-006,6.501084e-006
1.318235e+000,-8.224612e-006,6.513679e-006
1.319029e+000,-8.224612e-006,6.520783e-006
1.319824e+000,-8.560311e-006,6.532276e-006
1.320618e+000,-6.881819e-006,6.548573e-006
1.321412e+000,-4.867628e-006,6.548573e-006
1.322206e+000,-6.881819e-006,6.537878e-006
1.323000e+000,-6.881819e-006,6.537878e-006
1.323794e+000,-3.189136e-006,6.535517e-006
1.324588e+000,-4.531929e-006,6.524084e-006
1.325382e+000,-5.539025e-006,6.512577e-006
1.326176e+000,-2.853437e-006,6.508498e-006
1.326971e+000,-1.678492e-006,6.493924e-006
1.327765e+000,-6.881819e-006,6.475182e-006
1.328559e+000,-5.874723e-006,6.472168e-006
1.329353e+000,-3.860533e-006,6.469006e-006
1.330147e+000,-6.881819e-006,6.463178e-006
1.330941e+000,-5.539025e-006,6.465344e-006
1.331735e+000,-4.196231e-006,6.452654e-006
1.332529e+000,-5.874723e-006,6.423834e-006
1.333324e+000,-6.210422e-006,6.412762e-006
1.334118e+000,-7.553216e-006,6.410579e-006
1.334912e+000,-5.874723e-006,6.412986e-006
1.335706e+000,-3.524834e-006,6.404754e-006
1.336500e+000,-5.539025e-006,6.383425e-006
1.337294e+000,-5.874723e-006,6.386685e-006
1.338088e+000,-8.896010e-006,6.392190e-006
1.338882e+000,-8.224612e-006,6.402288e-006
1.339676e+000,-2.853437e-006,6.408451e-006
1.340471e+000,-4.867628e-006,6.406099e-006
1.341265e+000,-3.189136e-006,6.399036e-006
1.342059e+000,-1.846342e-006,6.383312e-006
1.342853e+000,-4.196231e-006,6.372339e-006
1.343647e+000,-4.867628e-006,6.373634e-006
1.344441e+000,-6.881819e-006,6.374796e-006
1.345235e+000,-3.524834e-006,6.383516e-006
1.346029e+000,-2.853437e-006,6.384584e-006
1.346824e+000,-3.189136e-006,6.374796e-006
1.347618e+000,-7.217518e-006,6.367698e-006
1.348412e+000,-6.881819e-006,6.372093e-006
1.349206e+000,-8.896010e-006,6.365612e-006
1.350000e+000,-8.560311e-006,6.367078e-006
1.350794e+000,-6.210422e-006,6.384191e-006
1.351588e+000,-4.867628e-006,6.392225e-006
1.352382e+000,-5.539025e-006,6.397556e-006
1.353176e+000,-6.210422e-006,6.400080e-006
1.353971e+000,-7.553216e-006,6.394189e-006
1.354765e+000,-4.196231e-006,6.388686e-006
1.355559e+000,-8.224612e-006,6.376203e-006
1.356353e+000,-8.224612e-006,6.370234e-006
1.357147e+000,-7.553216e-006,6.367360e-006
1.357941e+000,-7.721065e-006,6.364710e-006
1.358735e+000,-5.203327e-006,6.365351e-006
1.359529e+000,-4.531929e-006,6.365781e-006
1.360324e+000,-2.182040e-006,6.361269e-006
1.361118e+000,-6.210422e-006,6.356529e-006
1.361912e+000,-8.560311e-006,6.360254e-006
1.362706e+000,-7.888914e-006,6.370910e-006
1.363500e+000,-6.881819e-006,6.369557e-006
1.364294e+000,-6.881819e-006,6.375056e-006
1.365088e+000,-7.049668e-006,6.379220e-006
1.365882e+000,-7.217518e-006,6.379804e-006
1.366676e+000,-5.539025e-006,6.377272e-006
1.367471e+000,-8.896010e-006,6.371924e-006
1.368265e+000,-1.091020e-005,6.386924e-006
1.369059e+000,-7.553216e-006,6.408914e-006
1.369853e+000,-8.896010e-006,6.418706e-006
1.370647e+000,-8.560311e-006,6.429767e-006
1.371441e+000,-6.881819e-006,6.438358e-006
1.372235e+000,-7.553216e-006,6.441534e-006
1.373029e+000,-6.210422e-006,6.443930e-006
1.373824e+000,-8.224612e-006,6.445879e-006
1.374618e+000,-7.553216e-006,6.453057e-006
1.375412e+000,-6.546120e-006,6.455448e-006
1.376206e+000,-6.210422e-006,6.464449e-006
1.377000e+000,-8.224612e-006,6.468112e-006
1.377794e+000,-8.560311e-006,6.470088e-006
1.378588e+000,-8.560311e-006,6.471475e-006
1.379382e+000,-6.210422e-006,6.481006e-006
1.380176e+000,-4.867628e-006,6.476464e-006
1.380971e+000,-4.531929e-006,6.468257e-006
1.381765e+000,-6.210422e-006,6.465760e-006
1.382559e+000,-3.524834e-006,6.457206e-006
1.383353e+000,-3.189136e-006,6.448585e-006
1.384147e+000,-4.196231e-006,6.439396e-006
1.384941e+000,-1.007095e-006,6.436162e-006
1.385735e+000,-3.860533e-006,6.427869e-006
1.386529e+000,-4.531929e-006,6.424853e-006
1.387324e+000,-4.364080e-006,6.424071e-006
1.388118e+000,-2.853437e-006,6.427611e-006
1.388912e+000,-4.196231e-006,6.424539e-006
1.389706e+000,-4.196231e-006,6.419342e-006
1.390500e+000,-7.553216e-006,6.409550e-006
1.391294e+000,-7.721065e-006,6.418985e-006
1.392088e+000,-4.196231e-006,6.428671e-006
1.392882e+000,-6.881819e-006,6.428671e-006
1.393676e+000,-8.896010e-006,6.432801e-006
1.394471e+000,-5.874723e-006,6.435646e-006
1.395265e+000,-8.896010e-006,6.419901e-006
1.396059e+000,-8.224612e-006,6.413524e-006
1.396853e+000,-9.903105e-006,6.418559e-006
1.397647e+000,-1.023880e-005,6.427443e-006
1.398441e+000,-1.091020e-005,6.445788e-006
1.399235e+000,-9.567407e-006,6.471460e-006
1.400029e+000,-9.735256e-006,6.484480e-006
1.400824e+000,-1.023880e-005,6.489757e-006
1.401618e+000,-9.567407e-006,6.496058e-006
1.402412e+000,-8.560311e-006,6.509028e-006
1.403206e+000,-8.560311e-006,6.516468e-006
1.404000e+000,-8.224612e-006,6.522798e-006
1.404794e+000,-7.553216e-006,6.527749e-006
1.405588e+000,-5.539025e-006,6.521622e-006
1.406382e+000,-3.860533e-006,6.517549e-006
1.407176e+000,-2.853437e-006,6.517549e-006
1.407971e+000,-4.531929e-006,6.514884e-006
1.408765e+000,-6.210422e-006,6.514884e-006
1.409559e+000,-2.014191e-006,6.523748e-006
1.410353e+000,-3.524834e-006,6.524181e-006
1.411147e+000,-2.182040e-006,6.522200e-006
1.411941e+000,-1.174945e-006,6.518347e-006
1.412735e+000,-4.364080e-006,6.514382e-006
1.413529e+000,-2.182040e-006,6.514733e-006
1.414324e+000,-1.510643e-006,6.513907e-006
1.415118e+000,-2.517739e-006,6.513301e-006
1.415912e+000,-2.014191e-006,6.511813e-006
1.416706e+000,-1.510643e-006,6.507009e-006
1.417500e+000,-2.853437e-006,6.503257e-006
1.418294e+000,-6.210422e-006,6.504416e-006
1.419088e+000,-3.524834e-006,6.508828e-006
1.419882e+000,-2.349889e-006,6.508828e-006
1.420676e+000,-4.196231e-006,6.502671e-006
1.421471e+000,-6.210422e-006,6.487586e-006
1.422265e+000,-6.210422e-006,6.490407e-006
1.423059e+000,-4.364080e-006,6.491402e-006
1.423853e+000,-2.853437e-006,6.480799e-006
1.424647e+000,-3.189136e-006,6.445816e-006
1.425441e+000,-7.049668e-006,6.432941e-006
1.426235e+000,-5.035477e-006,6.422577e-006
1.427029e+000,-5.539025e-006,6.414714e-006
1.427824e+000,-5.539025e-006,6.409397e-006
1.428618e+000,-5.539025e-006,6.402842e-006
1.429412e+000,-6.881819e-006,6.386882e-006
1.430206e+000,-8.896010e-006,6.380416e-006
1.431000e+000,-6.881819e-006,6.391544e-006
1.431794e+000,-6.881819e-006,6.393734e-006
1.432588e+000,-9.567407e-006,6.397886e-006
1.433382e+000,-9.567407e-006,6.413014e-006
1.434176e+000,-9.567407e-006,6.426152e-006
1.434971e+000,-6.881819e-006,6.440747e-006
1.435765e+000,-4.867628e-006,6.438351e-006
1.436559e+000,-6.881819e-006,6.432495e-006
1.437353e+000,-5.539025e-006,6.436622e-006
1.438147e+000,-5.539025e-006,6.435674e-006
1.438941e+000,-6.546120e-006,6.431546e-006
1.439735e+000,-4.196231e-006,6.429258e-006
1.440529e+000,-1.510643e-006,6.424064e-006
1.441324e+000,-2.349889e-006,6.417916e-006
1.442118e+000,-5.539025e-006,6.403830e-006
1.442912e+000,-8.560311e-006,6.404726e-006
1.443706e+000,-6.210422e-006,6.418552e-006
1.444500e+000,-5.539025e-006,6.421403e-006
1.445294e+000,-6.210422e-006,6.424644e-006
1.446088e+000,-7.721065e-006,6.433855e-006
1.446882e+000,-8.224612e-006,6.448251e-006
1.447676e+000,-8.896010e-006,6.457373e-006
1.448471e+000,-5.874723e-006,6.458818e-006
1.449265e+000,-5.203327e-006,6.459762e-006
1.450059e+000,-7.217518e-006,6.457929e-006
1.450853e+000,-8.560311e-006,6.456074e-006
1.451647e+000,-6.881819e-006,6.463574e-006
1.452441e+000,-9.567407e-006,6.467681e-006
1.453235e+000,-1.023880e-005,6.479656e-006
1.454029e+000,-9.903105e-006,6.493765e-006
1.454824e+000,-8.560311e-006,6.506189e-006
1.455618e+000,-8.560311e-006,6.510159e-006
1.456412e+000,-8.560311e-006,6.518643e-006
1.457206e+000,-5.539025e-006,6.524972e-006
1.458000e+000,-7.553216e-006,6.526677e-006
1.458794e+000,-6.881819e-006,6.538105e-006
1.459588e+000,-5.539025e-006,6.544634e-006
1.460382e+000,-6.881819e-006,6.536952e-006
1.461176e+000,-4.196231e-006,6.543845e-006
1.461971e+000,-6.881819e-006,6.543132e-006
1.462765e+000,-5.539025e-006,6.551629e-006
1.463559e+000,-5.539025e-006,6.557542e-006
1.464353e+000,-5.203327e-006,6.560005e-006
1.465147e+000,-5.035477e-006,6.553929e-006
1.465941e+000,-6.210422e-006,6.550718e-006
1.466735e+000,-9.063859e-006,6.555811e-006
1.467529e+000,-7.553216e-006,6.573763e-006
1.468324e+000,-7.888914e-006,6.579220e-006
1.469118e+000,-6.210422e-006,6.587724e-006
1.469912e+000,-5.539025e-006,6.580693e-006
1.470706e+000,-2.517739e-006,6.564366e-006
1.471500e+000,-4.364080e-006,6.548108e-006
1.472294e+000,-7.888914e-006,6.545278e-006
1.473088e+000,-5.203327e-006,6.551033e-006
1.473882e+000,-2.014191e-006,6.551854e-006
1.474676e+000,-1.174945e-006,6.541321e-006
1.475471e+000,-1.678492e-007,6.534185e-006
1.476265e+000,-1.678492e-006,6.529185e-006
1.477059e+000,-5.874723e-006,6.520460e-006
1.477853e+000,-7.217518e-006,6.521395e-006
1.478647e+000,-8.392462e-006,6.522551e-006
1.479441e+000,-8.896010e-006,6.534721e-006
1.480235e+000,-1.091020e-005,6.550957e-006
1.481029e+000,-1.091020e-005,6.576820e-006
1.481824e+000,-8.224612e-006,6.594150e-006
1.482618e+000,-5.539025e-006,6.597905e-006
1.483412e+000,-4.867628e-006,6.597905e-006
1.484206e+000,-6.881819e-006,6.601657e-006
1.485000e+000,-5.874723e-006,6.608123e-006
1.485794e+000,-6.210422e-006,6.613443e-006
1.486588e+000,-6.881819e-006,6.611327e-006
1.487382e+000,-3.189136e-006,6.613443e-006
1.488176e+000,-3.189136e-006,6.604484e-006
1.488971e+000,-6.210422e-006,6.595511e-006
1.489765e+000,-9.735256e-006,6.587125e-006
1.490559e+000,-7.049668e-006,6.563074e-006
1.491353e+000,-6.210422e-006,6.536629e-006
1.492147e+000,-3.021286e-006,6.525254e-006
1.492941e+000,-1.174945e-006,6.509581e-006
1.493735e+000,-8.392462e-007,6.487490e-006
1.494529e+000,-3.524834e-006,6.481845e-006
1.495324e+000,-2.182040e-006,6.468264e-006
1.496118e+000,-3.524834e-006,6.459936e-006
1.496912e+000,-7.217518e-006,6.450151e-006
1.497706e+000,-5.874723e-006,6.433605e-006
1.498500e+000,-4.196231e-006,6.434085e-006
1.499294e+000,-4.531929e-006,6.438268e-006
1.500088e+000,-4.196231e-006,6.438992e-006
1.500882e+000,-5.874723e-006,6.437076e-006
1.501676e+000,-5.539025e-006,6.444432e-006
1.502471e+000,-9.567407e-006,6.449498e-006
1.503265e+000,-1.091020e-005,6.454003e-006
1.504059e+000,-9.567407e-006,6.472771e-006
1.504853e+000,-8.224612e-006,6.492204e-006
1.505647e+000,-8.224612e-006,6.506782e-006
1.506441e+000,-8.392462e-006,6.521767e-006
1.507235e+000,-1.158160e-005,6.534653e-006
1.508029e+000,-9.567407e-006,6.562637e-006
1.508824e+000,-7.217518e-006,6.580203e-006
1.509618e+000,-1.091020e-005,6.587072e-006
1.510412e+000,-8.560311e-006,6.596708e-006
1.511206e+000,-1.040665e-005,6.595294e-006
1.512000e+000,-1.023880e-005,6.612107e-006
1.512794e+000,-7.217518e-006,6.628046e-006
1.513588e+000,-1.023880e-005,6.615363e-006
1.514382e+000,-1.191730e-005,6.624309e-006
1.515176e+000,-1.023880e-005,6.645891e-006
1.515971e+000,-7.553216e-006,6.665303e-006
1.516765e+000,-1.124590e-005,6.673268e-006
1.517559e+000,-2.232395e-005,6.690992e-006
1.518353e+000,-2.635233e-005,6.801382e-006
1.519147e+000,-2.433814e-005,6.957016e-006
1.519941e+000,-2.232395e-005,7.074825e-006
1.520735e+000,-1.560998e-005,7.170493e-006
1.521529e+000,-7.553216e-006,7.205593e-006
1.522324e+000,3.189136e-006,7.209676e-006
1.523118e+000,1.158160e-005,7.206689e-006
1.523912e+000,3.407340e-005,7.225837e-006
1.524706e+000,3.877317e-005,7.466718e-006
1.525500e+000,1.091020e-005,7.773656e-006
1.526294e+000,-1.393149e-005,7.788324e-006
1.527088e+000,-3.944457e-005,7.814133e-006
1.527882e+000,-7.133593e-005,8.111736e-006
1.528676e+000,-9.550622e-005,9.039643e-006
1.529471e+000,-5.958648e-005,1.051924e-005
1.530265e+000,8.006408e-005,1.104184e-005
1.531059e+000,1.428397e-004,1.193033e-005
1.531853e+000,8.979935e-005,1.439777e-005
1.532647e+000,6.411841e-005,1.526253e-005
1.533441e+000,4.263371e-005,1.568318e-005
1.534235e+000,1.712062e-005,1.586489e-005
1.535029e+000,4.196231e-006,1.589121e-005
1.535824e+000,-2.853437e-006,1.588911e-005
1.536618e+000,-8.224612e-006,1.588868e-005
1.537412e+000,-1.057450e-005,1.589238e-005
1.538206e+000,-1.560998e-005,1.589929e-005
1.539000e+000,-1.779202e-005,1.591847e-005
1.539794e+000,-1.913481e-005,1.594441e-005
1.540588e+000,-2.182040e-005,1.597148e-005
1.541382e+000,-2.433814e-005,1.600631e-005
1.542176e+000,-2.333104e-005,1.605605e-005
1.542971e+000,-2.500954e-005,1.610326e-005
1.543765e+000,-2.366674e-005,1.615777e-005
1.544559e+000,-2.467384e-005,1.620799e-005
1.545353e+000,-2.433814e-005,1.626432e-005
1.546147e+000,-2.333104e-005,1.632049e-005
1.546941e+000,-2.500954e-005,1.637121e-005
1.547735e+000,-2.098116e-005,1.643191e-005
1.548529e+000,-1.795987e-005,1.647331e-005
1.549324e+000,-1.779202e-005,1.650302e-005
1.550118e+000,-1.644922e-005,1.653327e-005
1.550912e+000,-1.762417e-005,1.655917e-005
1.551706e+000,-1.628138e-005,1.658880e-005
1.552500e+000,-1.258869e-005,1.661254e-005
1.553294e+000,-1.091020e-005,1.662478e-005
1.554088e+000,-1.225299e-005,1.663449e-005
1.554882e+000,-1.091020e-005,1.664717e-005
1.555676e+000,-9.567407e-006,1.665659e-005
1.556471e+000,-8.896010e-006,1.666366e-005
1.557265e+000,-9.063859e-006,1.666647e-005
1.558059e+000,-8.224612e-006,1.667043e-005
1.558853e+000,-7.049668e-006,1.667120e-005
1.559647e+000,-6.210422e-006,1.667185e-005
1.560441e+000,-3.524834e-006,1.666769e-005
1.561235e+000,-5.539025e-006,1.665886e-005
1.562029e+000,-3.860533e-006,1.665394e-005
1.562824e+000,-8.392462e-007,1.664780e-005
1.563618e+000,-1.678492e-007,1.664241e-005
1.564412e+000,-2.853437e-006,1.663539e-005
1.565206e+000,-3.189136e-006,1.663164e-005
1.566000e+000,-3.524834e-006,1.662715e-005
1.566794e+000,-3.524834e-006,1.662288e-005
1.567588e+000,-5.203327e-006,1.661836e-005
1.568382e+000,-7.721065e-006,1.661447e-005
1.569176e+000,-6.881819e-006,1.661370e-005
1.569971e+000,-1.510643e-006,1.661121e-005
1.570765e+000,-4.364080e-006,1.660689e-005
1.571559e+000,-5.539025e-006,1.660645e-005
1.572353e+000,-5.203327e-006,1.660485e-005
1.573147e+000,-7.217518e-006,1.660290e-005
1.573941e+000,-8.224612e-006,1.660692e-005
1.574735e+000,-6.881819e-006,1.661144e-005
1.575529e+000,-5.874723e-006,1.661304e-005
1.576324e+000,-6.546120e-006,1.661557e-005
1.577118e+000,-1.225299e-005,1.661940e-005
1.577912e+000,-1.762417e-005,1.662925e-005
1.578706e+000,-1.863127e-005,1.665566e-005
1.579500e+000,-1.695277e-005,1.668740e-005
1.580294e+000,-1.594568e-005,1.671028e-005
1.581088e+000,-1.695277e-005,1.673158e-005
1.581882e+000,-2.182040e-005,1.675723e-005
1.582676e+000,-2.987716e-005,1.679915e-005
1.583471e+000,-3.105211e-005,1.687991e-005
1.584265e+000,-1.913481e-005,1.696527e-005
1.585059e+000,-1.426719e-005,1.699637e-005
1.585853e+000,-1.091020e-005,1.701426e-005
1.586647e+000,2.182040e-006,1.702253e-005
1.587441e+000,-8.224612e-006,1.701975e-005
1.588235e+000,-1.359579e-005,1.701867e-005
1.589029e+000,-5.522240e-005,1.702964e-005
1.589824e+000,-7.486076e-005,1.731168e-005
1.590618e+000,6.428626e-005,1.781759e-005
1.591412e+000,1.827878e-004,1.818229e-005
1.592206e+000,1.267262e-004,2.090432e-005
1.593000e+000,2.735943e-005,2.209252e-005
1.593794e+000,7.385367e-006,2.214470e-005
1.594588e+000,1.426719e-005,2.214522e-005
1.595382e+000,1.292439e-005,2.215896e-005
1.596176e+000,4.531929e-006,2.217037e-005
1.596971e+000,1.980621e-005,2.217112e-005
1.597765e+000,1.460288e-005,2.219554e-005
1.598559e+000,-1.594568e-005,2.220743e-005
1.599353e+000,-2.500954e-005,2.221999e-005
1.600147e+000,-1.258869e-005,2.225952e-005
1.600941e+000,2.467384e-005,2.226810e-005
1.601735e+000,5.488670e-005,2.230990e-005
1.602529e+000,4.934768e-005,2.252172e-005
1.603324e+000,-1.510643e-006,2.269054e-005
1.604118e+000,-1.896696e-005,2.268670e-005
1.604912e+000,-1.762417e-005,2.271070e-005
1.605706e+000,-1.963836e-005,2.272773e-005
1.606500e+000,-2.232395e-005,2.275000e-005
1.607294e+000,-2.652018e-005,2.278087e-005
1.608088e+000,-2.970932e-005,2.282582e-005
1.608882e+000,-3.239490e-005,2.288542e-005
1.609676e+000,-2.903792e-005,2.295690e-005
1.610471e+000,-2.970932e-005,2.301499e-005
1.611265e+000,-3.239490e-005,2.307331e-005
1.612059e+000,-3.172351e-005,2.314058e-005
1.612853e+000,-3.121996e-005,2.320546e-005
1.613647e+000,-2.970932e-005,2.326900e-005
1.614441e+000,-3.138781e-005,2.332609e-005
1.615235e+000,-3.071641e-005,2.338987e-005
1.616029e+000,-2.719158e-005,2.345048e-005
1.616824e+000,-2.232395e-005,2.349855e-005
1.617618e+000,-2.098116e-005,2.352694e-005
1.618412e+000,-1.863127e-005,2.354867e-005
1.619206e+000,-1.930266e-005,2.356827e-005
1.620000e+000,-1.963836e-005,2.358809e-005
1.620794e+000,-1.728847e-005,2.360917e-005
1.621588e+000,-1.393149e-005,2.362613e-005
1.622382e+000,-1.359579e-005,2.363536e-005
1.623176e+000,-1.376364e-005,2.364522e-005
1.623971e+000,-1.023880e-005,2.365342e-005
1.624765e+000,-9.903105e-006,2.365663e-005
1.625559e+000,-7.888914e-006,2.366035e-005
1.626353e+000,-8.224612e-006,2.366194e-005
1.627147e+000,-7.217518e-006,2.366194e-005
1.627941e+000,-4.196231e-006,2.366052e-005
1.628735e+000,-1.846342e-006,2.365677e-005
1.629529e+000,-5.203327e-006,2.365440e-005
1.630324e+000,-3.524834e-006,2.365463e-005
1.631118e+000,-2.853437e-006,2.365409e-005
1.631912e+000,-3.692683e-006,2.365204e-005
1.632706e+000,-2.182040e-006,2.365212e-005
1.633500e+000,-8.392462e-007,2.365175e-005
1.634294e+000,-3.524834e-006,2.365061e-005
1.635088e+000,-4.196231e-006,2.365138e-005
1.635882e+000,-3.692683e-006,2.365157e-005
1.636676e+000,-3.189136e-006,2.365110e-005
1.637471e+000,-1.846342e-006,2.365050e-005
1.638265e+000,-6.210422e-006,2.365018e-005
1.639059e+000,-9.567407e-006,2.365160e-005
1.639853e+000,-6.881819e-006,2.365657e-005
1.640647e+000,-1.846342e-006,2.365592e-005
1.641441e+000,-8.392462e-007,2.365214e-005
1.642235e+000,5.035477e-007,2.365100e-005
1.643029e+000,-2.517739e-006,2.364783e-005
1.643824e+000,-4.196231e-006,2.364292e-005
1.644618e+000,-2.853437e-006,2.364179e-005
1.645412e+000,-4.196231e-006,2.363700e-005
1.646206e+000,-8.392462e-007,2.363363e-005
1.647000e+000,-1.510643e-006,2.362707e-005
1.647794e+000,1.174945e-006,2.362016e-005
1.648588e+000,1.174945e-006,2.361223e-005
1.649382e+000,1.174945e-006,2.360614e-005
1.650176e+000,1.174945e-006,2.359984e-005
1.650971e+000,-1.007095e-006,2.359286e-005
1.651765e+000,-1.846342e-006,2.358675e-005
1.652559e+000,-5.035477e-007,2.358203e-005
1.653353e+000,-1.510643e-006,2.357710e-005
1.654147e+000,-3.189136e-006,2.357269e-005
1.654941e+000,-5.035477e-007,2.356952e-005
1.655735e+000,-5.035477e-007,2.356746e-005
1.656529e+000,-8.392462e-007,2.356647e-005
1.657324e+000,5.035477e-007,2.356597e-005
1.658118e+000,-1.510643e-006,2.356460e-005
1.658912e+000,-2.517739e-006,2.356215e-005
1.659706e+000,-3.021286e-006,2.356230e-005
1.660500e+000,-8.224612e-006,2.356208e-005
1.661294e+000,-8.392462e-006,2.356633e-005
1.662088e+000,-4.196231e-006,2.357100e-005
1.662882e+000,-8.896010e-006,2.357090e-005
1.663676e+000,-1.040665e-005,2.357592e-005
1.664471e+000,-5.539025e-006,2.358308e-005
1.665265e+000,-5.539025e-006,2.358473e-005
1.666059e+000,-6.210422e-006,2.358652e-005
1.666853e+000,-6.210422e-006,2.358897e-005
1.667647e+000,-6.881819e-006,2.359103e-005
1.668441e+000,-3.524834e-006,2.359162e-005
1.669235e+000,-4.867628e-006,2.359162e-005
1.670029e+000,-7.888914e-006,2.359285e-005
1.670824e+000,-6.881819e-006,2.359586e-005
1.671618e+000,-6.210422e-006,2.359645e-005
1.672412e+000,-6.378271e-006,2.359645e-005
1.673206e+000,-7.721065e-006,2.359791e-005
1.674000e+000,-6.546120e-006,2.360139e-005
1.674794e+000,-8.896010e-006,2.360359e-005
1.675588e+000,-1.158160e-005,2.360558e-005
1.676382e+000,-1.225299e-005,2.361291e-005
1.677176e+000,-1.628138e-005,2.362097e-005
1.677971e+000,-1.829557e-005,2.363677e-005
1.678765e+000,-2.836652e-005,2.365724e-005
1.679559e+000,-3.239490e-005,2.370816e-005
1.680353e+000,-3.038071e-005,2.377324e-005
1.681147e+000,-3.340200e-005,2.383182e-005
1.681941e+000,-3.390555e-005,2.390309e-005
1.682735e+000,-2.836652e-005,2.397347e-005
1.683529e+000,-2.786297e-005,2.402079e-005
1.684324e+000,-2.366674e-005,2.406615e-005
1.685118e+000,-2.769513e-005,2.410005e-005
1.685912e+000,-3.944457e-005,2.414911e-005
1.686706e+000,-5.925078e-005,2.424838e-005
1.687500e+000,-8.627451e-005,2.447584e-005
1.688294e+000,-2.786297e-005,2.495343e-005
1.689088e+000,1.206836e-004,2.500019e-005
1.689882e+000,1.683528e-004,2.591018e-005
1.690676e+000,1.146410e-004,2.759698e-005
1.691471e+000,1.146410e-004,2.834486e-005
1.692265e+000,1.132982e-004,2.907213e-005
1.693059e+000,4.649424e-005,2.976299e-005
1.693853e+000,-1.695277e-005,2.987637e-005
1.694647e+000,-3.105211e-005,2.989005e-005
1.695441e+000,-3.508049e-005,2.993932e-005
1.696235e+000,-3.944457e-005,3.000154e-005
1.697029e+000,-3.709468e-005,3.008043e-005
1.697824e+000,-4.347295e-005,3.014900e-005
1.698618e+000,-4.179446e-005,3.024684e-005
1.699412e+000,-3.440909e-005,3.033724e-005
1.700206e+000,-6.881819e-006,3.039659e-005
1.701000e+000,2.131685e-005,3.039523e-005
1.701794e+000,-1.963836e-005,3.041655e-005
1.702588e+000,-5.387960e-005,3.043194e-005
1.703382e+000,-3.776608e-005,3.057801e-005
1.704176e+000,-3.675899e-005,3.064710e-005
1.704971e+000,-6.965744e-005,3.071343e-005
1.705765e+000,-1.414969e-004,3.096020e-005
1.706559e+000,-7.032883e-005,3.196972e-005
1.707353e+000,5.287251e-005,3.221362e-005
1.708147e+000,2.870222e-005,3.234870e-005
1.708941e+000,-4.280156e-005,3.238690e-005
1.709735e+000,8.812085e-005,3.247534e-005
1.710529e+000,2.445563e-004,3.285159e-005
1.711324e+000,2.143435e-004,3.563203e-005
1.712118e+000,7.888914e-005,3.762721e-005
1.712912e+000,1.326009e-005,3.788837e-005
1.713706e+000,-3.860533e-006,3.789448e-005
1.714500e+000,-1.930266e-005,3.789396e-005
1.715294e+000,-2.668803e-005,3.790855e-005
1.716088e+000,-2.903792e-005,3.793684e-005
1.716882e+000,-3.390555e-005,3.796877e-005
1.717676e+000,-3.927672e-005,3.801456e-005
1.718471e+000,-4.179446e-005,3.807652e-005
1.719265e+000,-4.481575e-005,3.814789e-005
1.720059e+000,-4.548714e-005,3.823036e-005
1.720853e+000,-4.112306e-005,3.831618e-005
1.721647e+000,-3.910887e-005,3.838561e-005
1.722441e+000,-3.910887e-005,3.844642e-005
1.723235e+000,-3.642328e-005,3.850860e-005
1.724029e+000,-3.508049e-005,3.856325e-005
1.724824e+000,-3.541619e-005,3.861398e-005
1.725618e+000,-3.239490e-005,3.866567e-005
1.726412e+000,-2.836652e-005,3.870875e-005
1.727206e+000,-2.635233e-005,3.874041e-005
1.728000e+000,-2.165255e-005,3.876681e-005
1.728794e+000,-1.829557e-005,3.878317e-005
1.729588e+000,-1.661708e-005,3.879366e-005
1.730382e+000,-1.493858e-005,3.880011e-005
1.731176e+000,-1.527428e-005,3.880438e-005
1.731971e+000,-9.567407e-006,3.881118e-005
1.732765e+000,-8.224612e-006,3.881368e-005
1.733559e+000,-8.560311e-006,3.881548e-005
1.734353e+000,-4.867628e-006,3.881654e-005
1.735147e+000,-5.539025e-006,3.881610e-005
1.735941e+000,-2.853437e-006,3.881577e-005
1.736735e+000,-3.524834e-006,3.881416e-005
1.737529e+000,-3.524834e-006,3.881425e-005
1.738324e+000,-2.853437e-006,3.881435e-005
1.739118e+000,-1.678492e-007,3.881310e-005
1.739912e+000,-1.510643e-006,3.880921e-005
1.740706e+000,-3.524834e-006,3.880727e-005
1.741500e+000,-5.539025e-006,3.880619e-005
1.742294e+000,-2.182040e-006,3.880708e-005
1.743088e+000,-1.510643e-006,3.880721e-005
1.743882e+000,2.517739e-006,3.880728e-005
1.744676e+000,-8.392462e-007,3.880703e-005
1.745471e+000,-1.846342e-006,3.880687e-005
1.746265e+000,-2.182040e-006,3.880649e-005
1.747059e+000,-1.510643e-006,3.880455e-005
1.747853e+000,1.174945e-006,3.880323e-005
1.748647e+000,3.860533e-006,3.880257e-005
1.749441e+000,-8.392462e-007,3.880233e-005
1.750235e+000,-8.392462e-007,3.880164e-005
1.751029e+000,-1.846342e-006,3.880025e-005
1.751824e+000,-3.692683e-006,3.879913e-005
1.752618e+000,-3.189136e-006,3.879593e-005
1.753412e+000,-1.174945e-006,3.879147e-005
1.754206e+000,-2.517739e-006,3.878777e-005
1.755000e+000,-5.203327e-006,3.878525e-005
1.755794e+000,-6.881819e-006,3.878358e-005
1.756588e+000,-6.881819e-006,3.878264e-005
1.757382e+000,-2.853437e-006,3.877907e-005
1.758176e+000,-1.510643e-006,3.877565e-005
1.758971e+000,-3.021286e-006,3.877360e-005
1.759765e+000,-3.189136e-006,3.876909e-005
1.760559e+000,-8.392462e-007,3.876649e-005
1.761353e+000,-2.853437e-006,3.876207e-005
1.762147e+000,-2.349889e-006,3.875810e-005
1.762941e+000,-5.539025e-006,3.875619e-005
1.763735e+000,-3.692683e-006,3.875314e-005
1.764529e+000,-4.867628e-006,3.874787e-005
1.765324e+000,-5.874723e-006,3.874453e-005
1.766118e+000,-4.531929e-006,3.874361e-005
1.766912e+000,-3.189136e-006,3.873925e-005
1.767706e+000,-4.196231e-006,3.871918e-005
1.768500e+000,-2.853437e-006,3.869133e-005
1.769294e+000,-5.539025e-006,3.866728e-005
1.770088e+000,-6.881819e-006,3.864802e-005
1.770882e+000,-3.524834e-006,3.863993e-005
1.771676e+000,-4.867628e-006,3.863809e-005
1.772471e+000,-6.210422e-006,3.863865e-005
1.773265e+000,-8.224612e-006,3.863471e-005
1.774059e+000,-6.210422e-006,3.858962e-005
1.774853e+000,-7.217518e-006,3.852913e-005
1.775647e+000,-6.881819e-006,3.852636e-005
1.776441e+000,-4.867628e-006,3.852030e-005
1.777235e+000,-6.546120e-006,3.845691e-005
1.778029e+000,-8.560311e-006,3.824741e-005
1.778824e+000,-7.553216e-006,3.786883e-005
1.779618e+000,-6.210422e-006,3.772165e-005
1.780412e+000,-6.210422e-006,3.745171e-005
1.781206e+000,-6.210422e-006,3.657561e-005
1.782000e+000,-6.881819e-006,3.622453e-005
1.782794e+000,-9.231709e-006,3.604545e-005
1.783588e+000,-8.896010e-006,3.596883e-005
1.784382e+000,-8.224612e-006,3.595936e-005
1.785176e+000,-1.023880e-005,3.596158e-005
1.785971e+000,-1.057450e-005,3.596586e-005
1.786765e+000,-5.539025e-006,3.596781e-005
1.787559e+000,-8.560311e-006,3.596422e-005
1.788353e+000,-7.049668e-006,3.595667e-005
1.789147e+000,-7.217518e-006,3.594486e-005
1.789941e+000,-7.553216e-006,3.593094e-005
1.790735e+000,-6.546120e-006,3.591236e-005
1.791529e+000,-7.217518e-006,3.588799e-005
1.792324e+000,-6.881819e-006,3.586614e-005
1.793118e+000,-7.217518e-006,3.584046e-005
1.793912e+000,-9.567407e-006,3.581789e-005
1.794706e+000,-8.896010e-006,3.579488e-005
1.795500e+000,-5.539025e-006,3.577205e-005
1.796294e+000,-6.881819e-006,3.574917e-005
1.797088e+000,-7.553216e-006,3.572341e-005
1.797882e+000,-6.546120e-006,3.570633e-005
1.798676e+000,-3.524834e-006,3.569385e-005
1.799471e+000,5.035477e-007,3.568028e-005
1.800265e+000,-3.189136e-006,3.566822e-005
1.801059e+000,-3.860533e-006,3.565480e-005
1.801853e+000,-8.392462e-007,3.564363e-005
1.802647e+000,-8.392462e-007,3.563658e-005
1.803441e+000,-1.678492e-007,3.563129e-005
1.804235e+000,-1.174945e-006,3.562458e-005
1.805029e+000,-2.853437e-006,3.561932e-005
1.805824e+000,-6.881819e-006,3.561559e-005
1.806618e+000,-1.124590e-005,3.561418e-005
1.807412e+000,-2.030976e-005,3.561616e-005
1.808206e+000,-2.232395e-005,3.563157e-005
1.809000e+000,-2.702373e-005,3.565161e-005
1.809794e+000,-2.165255e-005,3.568250e-005
1.810588e+000,-2.098116e-005,3.570286e-005
1.811382e+000,-2.735943e-005,3.572112e-005
1.812176e+000,-2.836652e-005,3.575380e-005
1.812971e+000,-2.735943e-005,3.578960e-005
1.813765e+000,-2.450599e-005,3.582288e-005
1.814559e+000,-1.963836e-005,3.584920e-005
1.815353e+000,-2.064546e-005,3.586588e-005
1.816147e+000,-2.903792e-005,3.588425e-005
1.816941e+000,-3.726253e-005,3.592109e-005
1.817735e+000,-4.280156e-005,3.598139e-005
1.818529e+000,-2.366674e-005,3.605974e-005
1.819324e+000,3.608759e-005,3.608238e-005
1.820118e+000,9.416342e-005,3.613971e-005
1.820912e+000,1.136339e-004,3.652746e-005
1.821706e+000,5.555810e-005,3.708478e-005
1.822500e+000,9.718471e-005,3.721593e-005
1.823294e+000,1.555963e-004,3.761567e-005
1.824088e+000,7.771420e-005,3.862416e-005
1.824882e+000,-1.560998e-005,3.887041e-005
1.825676e+000,-6.865034e-005,3.887898e-005
1.826471e+000,-1.156481e-004,3.906978e-005
1.827265e+000,-1.190051e-004,3.960509e-005
1.828059e+000,1.795987e-005,4.015815e-005
1.828853e+000,1.176623e-004,4.015717e-005
1.829647e+000,3.810178e-005,4.069120e-005
1.830441e+000,-2.433814e-005,4.073804e-005
1.831235e+000,-1.661708e-005,4.074995e-005
1.832029e+000,-1.728847e-005,4.074214e-005
1.832824e+000,-2.769513e-005,4.071893e-005
1.833618e+000,-1.091020e-005,4.071121e-005
1.834412e+000,-1.846342e-005,4.070155e-005
1.835206e+000,-5.555810e-005,4.070692e-005
1.836000e+000,-4.783703e-005,4.082284e-005
1.836794e+000,-4.531930e-005,4.091182e-005
1.837588e+000,-5.656519e-005,4.098906e-005
1.838382e+000,-5.690089e-005,4.110601e-005
1.839176e+000,-4.649424e-005,4.111330e-005
1.839971e+000,-3.843748e-005,4.097975e-005
1.840765e+000,-7.804990e-005,4.087644e-005
1.841559e+000,-9.214923e-005,3.979797e-005
1.842353e+000,-1.091020e-005,3.949401e-005
1.843147e+000,3.608759e-005,3.946862e-005
1.843941e+000,7.553216e-006,3.951893e-005
1.844735e+000,1.997406e-005,3.951302e-005
1.845529e+000,2.064546e-005,3.952237e-005
1.846324e+000,-2.349889e-006,3.953871e-005
1.847118e+000,1.258869e-005,3.952313e-005
1.847912e+000,1.930266e-005,3.952092e-005
1.848706e+000,2.517739e-006,3.952569e-005
1.849500e+000,1.258869e-005,3.950074e-005
1.850294e+000,5.622950e-005,3.950074e-005
1.851088e+000,6.126497e-005,3.960352e-005
1.851882e+000,3.205920e-005,3.963330e-005
1.852676e+000,1.795987e-005,3.957671e-005
1.853471e+000,1.174945e-006,3.958960e-005
1.854265e+000,-1.493858e-005,3.957518e-005
1.855059e+000,-2.299535e-005,3.957166e-005
1.855853e+000,-2.165255e-005,3.957742e-005
1.856647e+000,-2.182040e-005,3.957623e-005
1.857441e+000,-2.030976e-005,3.956709e-005
1.858235e+000,-1.628138e-005,3.954817e-005
1.859029e+000,-1.359579e-005,3.951657e-005
1.859824e+000,-1.359579e-005,3.949004e-005
1.860618e+000,-1.225299e-005,3.946189e-005
1.861412e+000,-1.225299e-005,3.942558e-005
1.862206e+000,-1.124590e-005,3.939098e-005
1.863000e+000,-1.191730e-005,3.935668e-005
1.863794e+000,-1.359579e-005,3.932670e-005
1.864588e+000,-1.426719e-005,3.929429e-005
1.865382e+000,-1.158160e-005,3.926429e-005
1.866176e+000,-1.091020e-005,3.923973e-005
1.866971e+000,-1.191730e-005,3.922434e-005
1.867765e+000,-9.567407e-006,3.921223e-005
1.868559e+000,-9.903105e-006,3.920185e-005
1.869353e+000,-7.553216e-006,3.919070e-005
1.870147e+000,-6.881819e-006,3.917735e-005
1.870941e+000,-8.896010e-006,3.916712e-005
1.871735e+000,-8.896010e-006,3.916245e-005
1.872529e+000,-6.881819e-006,3.915815e-005
1.873324e+000,-5.539025e-006,3.915237e-005
1.874118e+000,-6.210422e-006,3.914936e-005
1.874912e+000,-8.224612e-006,3.914693e-005
1.875706e+000,-1.091020e-005,3.914715e-005
1.876500e+000,-1.393149e-005,3.914924e-005
1.877294e+000,-1.376364e-005,3.915502e-005
1.878088e+000,-1.544213e-005,3.916201e-005
1.878882e+000,-1.762417e-005,3.917156e-005
1.879676e+000,-1.695277e-005,3.918309e-005
1.880471e+000,-1.091020e-005,3.919426e-005
1.881265e+000,-7.553216e-006,3.919876e-005
1.882059e+000,-6.210422e-006,3.920053e-005
1.882853e+000,-5.539025e-006,3.920190e-005
1.883647e+000,3.860533e-006,3.920312e-005
1.884441e+000,1.997406e-005,3.920322e-005
1.885235e+000,1.997406e-005,3.921871e-005
1.886029e+000,3.726253e-005,3.923435e-005
1.886824e+000,1.930266e-005,3.929025e-005
1.887618e+000,-1.678492e-005,3.930521e-005
1.888412e+000,-1.762417e-005,3.931506e-005
1.889206e+000,-3.021286e-006,3.932394e-005
1.890000e+000,1.174945e-006,3.932239e-005
1.890794e+000,3.189136e-006,3.932230e-005
1.891588e+000,4.783703e-005,3.932269e-005
1.892382e+000,3.340200e-005,3.941523e-005
1.893176e+000,3.189136e-006,3.946002e-005
1.893971e+000,-1.023880e-005,3.945973e-005
1.894765e+000,-1.225299e-005,3.946363e-005
1.895559e+000,-1.359579e-005,3.946897e-005
1.896353e+000,-1.493858e-005,3.947640e-005
1.897147e+000,-1.560998e-005,3.948531e-005
1.897941e+000,-1.963836e-005,3.949508e-005
1.898735e+000,-2.165255e-005,3.951057e-005
1.899529e+000,-1.762417e-005,3.952940e-005
1.900324e+000,-1.695277e-005,3.954186e-005
1.901118e+000,-2.030976e-005,3.955339e-005
1.901912e+000,-1.644922e-005,3.956986e-005
1.902706e+000,-1.359579e-005,3.958073e-005
1.903500e+000,-1.493858e-005,3.958808e-005
1.904294e+000,-1.091020e-005,3.959665e-005
1.905088e+000,-1.174945e-005,3.960142e-005
1.905882e+000,-1.292439e-005,3.960696e-005
1.906676e+000,-2.500954e-005,3.961365e-005
1.907471e+000,-3.340200e-005,3.963877e-005
1.908265e+000,-4.011597e-005,3.968348e-005
1.909059e+000,-3.910887e-005,3.974774e-005
1.909853e+000,-3.273060e-005,3.980860e-005
1.910647e+000,-2.500954e-005,3.984873e-005
1.911441e+000,-1.057450e-005,3.987090e-005
1.912235e+000,7.553216e-006,3.987466e-005
1.913029e+000,8.896010e-006,3.987378e-005
1.913824e+000,-1.426719e-005,3.987262e-005
1.914618e+000,-7.133593e-005,3.987952e-005
1.915412e+000,-9.365987e-005,4.008098e-005
1.916206e+000,7.486076e-005,4.042646e-005
1.917000e+000,2.418708e-004,4.064509e-005
1.917794e+000,1.529107e-004,4.287403e-005
1.918588e+000,6.881819e-005,4.373337e-005
1.919382e+000,5.555810e-005,4.390461e-005
1.920176e+000,3.356985e-007,4.401416e-005
1.920971e+000,-2.702373e-005,4.401245e-005
1.921765e+000,-3.776608e-005,4.403747e-005
1.922559e+000,-5.824369e-005,4.408755e-005
1.923353e+000,-6.009003e-005,4.420775e-005
1.924147e+000,-3.575189e-005,4.433609e-005
1.924941e+000,-2.702373e-005,4.437913e-005
1.925735e+000,-3.340200e-005,4.440052e-005
1.926529e+000,-3.642328e-005,4.443513e-005
1.927324e+000,-3.575189e-005,4.447316e-005
1.928118e+000,-2.702373e-005,4.450692e-005
1.928912e+000,-2.702373e-005,4.450426e-005
1.929706e+000,-2.786297e-005,4.449284e-005
1.930500e+000,-1.846342e-005,4.448760e-005
1.931294e+000,-3.776608e-005,4.445985e-005
1.932088e+000,-8.476387e-005,4.446976e-005
1.932882e+000,-6.529335e-005,4.469764e-005
1.933676e+000,-1.443504e-005,4.482169e-005
1.934471e+000,-8.224612e-006,4.480919e-005
1.935265e+000,-6.210422e-006,4.478433e-005
1.936059e+000,6.831464e-005,4.473035e-005
1.936853e+000,5.958648e-005,4.477149e-005
1.937647e+000,-1.326009e-005,4.463282e-005
1.938441e+000,1.594568e-005,4.461140e-005
1.939235e+000,4.515145e-005,4.409765e-005
1.940029e+000,7.167162e-005,4.313736e-005
1.940824e+000,9.248493e-005,4.284082e-005
1.941618e+000,2.601663e-005,4.266990e-005
1.942412e+000,3.860533e-006,4.221369e-005
1.943206e+000,-2.853437e-006,4.213264e-005
1.944000e+000,-4.531929e-006,4.212208e-005
1.944794e+000,3.189136e-006,4.208639e-005
1.945588e+000,-4.179446e-005,4.204018e-005
1.946382e+000,-9.550622e-005,4.204742e-005
1.947176e+000,-1.035630e-004,4.233972e-005
1.947971e+000,-1.065843e-004,4.267072e-005
1.948765e+000,-1.277333e-004,4.302797e-005
1.949559e+000,-1.398184e-004,4.358436e-005
1.950353e+000,-1.331044e-004,4.429113e-005
1.951147e+000,-1.623102e-004,4.490747e-005
1.951941e+000,-1.371328e-004,4.581869e-005
1.952735e+000,7.603571e-005,4.636806e-005
1.953529e+000,2.569772e-004,4.651738e-005
1.954324e+000,1.804379e-004,4.868134e-005
1.955118e+000,8.375677e-005,4.957931e-005
1.955912e+000,1.018845e-004,4.915981e-005
1.956706e+000,6.663615e-005,4.933552e-005
1.957500e+000,3.810178e-005,4.938858e-005
1.958294e+000,1.696956e-004,4.940882e-005
1.959088e+000,2.586557e-004,5.027034e-005
1.959882e+000,1.535820e-004,5.210991e-005
1.960676e+000,7.368582e-005,5.099109e-005
1.961471e+000,3.877317e-005,4.970983e-005
1.962265e+000,-2.182040e-006,4.955840e-005
1.963059e+000,-3.105211e-005,4.955290e-005
1.963853e+000,-4.045167e-005,4.958340e-005
1.964647e+000,-6.059357e-005,4.962397e-005
1.965441e+000,-6.948959e-005,4.971883e-005
1.966235e+000,-7.402152e-005,4.984632e-005
1.967029e+000,-8.006408e-005,4.998444e-005
1.967824e+000,-8.224613e-005,5.013926e-005
1.968618e+000,-7.804990e-005,5.029837e-005
1.969412e+000,-6.730755e-005,5.042747e-005
1.970206e+000,-6.227207e-005,5.050513e-005
1.971000e+000,-6.092927e-005,5.057403e-005
1.971794e+000,-5.656519e-005,5.064271e-005
1.972588e+000,-5.287251e-005,5.069519e-005
1.973382e+000,-5.287251e-005,5.074131e-005
1.974176e+000,-4.750134e-005,5.079040e-005
1.974971e+000,-4.179446e-005,5.082180e-005
1.975765e+000,-3.743038e-005,5.084365e-005
1.976559e+000,-3.172351e-005,5.086232e-005
1.977353e+000,-2.383459e-005,5.087209e-005
1.978147e+000,-1.762417e-005,5.087519e-005
1.978941e+000,-1.023880e-005,5.087444e-005
1.979735e+000,-5.539025e-006,5.086908e-005
1.980529e+000,1.174945e-006,5.086305e-005
1.981324e+000,-1.510643e-006,5.085579e-005
1.982118e+000,-7.553216e-006,5.085300e-005
1.982912e+000,-8.560311e-006,5.085267e-005
1.983706e+000,-2.853437e-006,5.085267e-005
1.984500e+000,1.846342e-006,5.085218e-005
1.985294e+000,4.196231e-006,5.085133e-005
1.986088e+000,3.860533e-006,5.085162e-005
1.986882e+000,-2.517739e-006,5.085170e-005
1.987676e+000,-3.524834e-006,5.085151e-005
1.988471e+000,-3.524834e-006,5.085165e-005
1.989265e+000,-1.510643e-006,5.085203e-005
1.990059e+000,-1.174945e-006,5.085203e-005
1.990853e+000,2.517739e-006,5.085169e-005
1.991647e+000,1.846342e-006,5.085093e-005
1.992441e+000,-5.035477e-007,5.085088e-005
1.993235e+000,-2.517739e-006,5.085082e-005
1.994029e+000,-3.524834e-006,5.085082e-005
1.994824e+000,5.035477e-007,5.085118e-005
1.995618e+000,5.035477e-007,5.085109e-005
1.996412e+000,-1.510643e-006,5.085094e-005
1.997206e+000,-2.853437e-006,5.085094e-005
1.998000e+000,-2.182040e-006,5.085115e-005
1.998794e+000,-2.853437e-006,5.085084e-005
1.999588e+000,-2.517739e-006,5.085107e-005
2.000382e+000,-7.049668e-006,5.085125e-005
2.001176e+000,-6.881819e-006,5.085270e-005
2.001971e+000,-4.867628e-006,5.085375e-005
2.002765e+000,-2.517739e-006,5.085418e-005
2.003559e+000,1.846342e-006,5.085433e-005
2.004353e+000,8.224612e-006,5.085424e-005
2.005147e+000,1.326009e-005,5.085551e-005
2.005941e+000,8.224612e-006,5.085953e-005
2.006735e+000,1.158160e-005,5.086017e-005
2.007529e+000,2.937362e-005,5.086411e-005
2.008324e+000,2.534523e-005,5.089105e-005
2.009118e+000,-1.460288e-005,5.091085e-005
2.009912e+000,-3.508049e-005,5.091721e-005
2.010706e+000,-1.896696e-005,5.095566e-005
2.011500e+000,5.857939e-005,5.096664e-005
2.012294e+000,6.395056e-005,5.107357e-005
2.013088e+000,2.131685e-005,5.119996e-005
2.013882e+000,-4.531929e-006,5.121367e-005
2.014676e+000,-2.635233e-005,5.121357e-005
2.015471e+000,-2.635233e-005,5.123408e-005
2.016265e+000,-1.963836e-005,5.125503e-005
2.017059e+000,-1.896696e-005,5.126669e-005
2.017853e+000,-1.846342e-005,5.127731e-005
2.018647e+000,-2.131685e-005,5.128765e-005
2.019441e+000,-1.023880e-005,5.130080e-005
2.020235e+000,-5.035477e-007,5.130258e-005
2.021029e+000,-1.779202e-005,5.130221e-005
2.021824e+000,-2.232395e-005,5.131130e-005
2.022618e+000,-2.098116e-005,5.132557e-005
2.023412e+000,-2.299535e-005,5.133712e-005
2.024206e+000,-2.131685e-005,5.135232e-005
2.025000e+000,-2.198825e-005,5.136480e-005
2.025794e+000,-3.105211e-005,5.137832e-005
2.026588e+000,-2.870222e-005,5.140746e-005
2.027382e+000,-2.265965e-005,5.143164e-005
2.028176e+000,-1.493858e-005,5.144527e-005
2.028971e+000,-1.107805e-005,5.145041e-005
2.029765e+000,-1.560998e-005,5.145301e-005
2.030559e+000,-3.810178e-005,5.145936e-005
2.031353e+000,-8.039978e-005,5.150307e-005
2.032147e+000,-1.082628e-004,5.170108e-005
2.032941e+000,-1.193408e-004,5.205822e-005
2.033735e+000,1.527428e-005,5.248965e-005
2.034529e+000,1.448539e-004,5.249468e-005
2.035324e+000,1.032273e-004,5.312420e-005
2.036118e+000,3.927672e-005,5.343932e-005
2.036912e+000,2.500954e-005,5.348435e-005
2.037706e+000,1.057450e-005,5.350079e-005
2.038500e+000,1.846342e-005,5.350264e-005
2.039294e+000,4.179446e-005,5.351123e-005
2.040088e+000,6.126497e-005,5.356149e-005
2.040882e+000,1.997406e-005,5.367169e-005
2.041676e+000,-3.474479e-005,5.368198e-005
2.042471e+000,3.743038e-005,5.371638e-005
2.043265e+000,1.334401e-004,5.375635e-005
2.044059e+000,9.315633e-005,5.427855e-005
2.044853e+000,1.057450e-005,5.453024e-005
2.045647e+000,-4.380865e-005,5.453260e-005
2.046441e+000,-6.227207e-005,5.458724e-005
2.047235e+000,-7.469291e-005,5.469858e-005
2.048029e+000,-7.200732e-005,5.485951e-005
2.048824e+000,-7.133593e-005,5.500944e-005
2.049618e+000,-4.783703e-005,5.515655e-005
2.050412e+000,-6.730755e-005,5.522228e-005
2.051206e+000,-7.402152e-005,5.535233e-005
2.052000e+000,-5.857939e-005,5.550971e-005
2.052794e+000,-4.817273e-005,5.560804e-005
2.053588e+000,-3.323415e-005,5.567445e-005
2.054382e+000,-4.196231e-006,5.570599e-005
2.055176e+000,7.217518e-006,5.570626e-005
2.055971e+000,-8.392462e-006,5.570639e-005
2.056765e+000,2.668803e-005,5.570479e-005
2.057559e+000,5.354391e-005,5.571336e-005
2.058353e+000,-2.601663e-005,5.578102e-005
2.059147e+000,-6.865034e-005,5.577949e-005
2.059941e+000,-5.455100e-005,5.590052e-005
2.060735e+000,-4.213016e-005,5.597270e-005
2.061529e+000,-2.198825e-005,5.600189e-005
2.062324e+000,3.172351e-005,5.599275e-005
2.063118e+000,4.985122e-005,5.600009e-005
2.063912e+000,-2.232395e-005,5.605365e-005
2.064706e+000,-5.119402e-005,5.605685e-005
2.065500e+000,-3.105211e-005,5.611916e-005
2.066294e+000,6.210422e-006,5.612259e-005
2.067088e+000,1.393149e-005,5.608428e-005
2.067882e+000,5.874723e-006,5.603776e-005
2.068676e+000,5.203327e-005,5.602282e-005
2.069471e+000,-8.896010e-006,5.606274e-005
2.070265e+000,-9.013504e-005,5.581259e-005
2.071059e+000,4.481575e-005,5.567581e-005
2.071853e+000,1.305867e-004,5.564496e-005
2.072647e+000,2.366674e-005,5.586225e-005
2.073441e+000,5.857939e-005,5.518399e-005
2.074235e+000,1.945373e-004,5.510868e-005
2.075029e+000,1.555963e-004,5.618465e-005
2.075824e+000,3.810178e-005,5.673455e-005
2.076618e+000,-2.500954e-005,5.639892e-005
2.077412e+000,-5.085832e-005,5.601542e-005
2.078206e+000,-1.143053e-004,5.607975e-005
2.079000e+000,-1.062486e-004,5.605763e-005
2.079794e+000,4.515145e-005,5.633636e-005
2.080588e+000,5.874724e-005,5.637723e-005
2.081382e+000,1.846342e-006,5.646684e-005
2.082176e+000,-2.568093e-005,5.645851e-005
2.082971e+000,-3.978027e-005,5.645547e-005
2.083765e+000,-4.078737e-005,5.649673e-005
2.084559e+000,-3.138781e-005,5.653400e-005
2.085353e+000,-3.440909e-005,5.647478e-005
2.086147e+000,-4.850843e-005,5.644363e-005
2.086941e+000,-6.562905e-005,5.645207e-005
2.087735e+000,-8.476387e-005,5.648331e-005
2.088529e+000,-7.167162e-005,5.659448e-005
2.089324e+000,-4.515145e-005,5.667812e-005
2.090118e+000,-4.145876e-005,5.669389e-005
2.090912e+000,-5.186542e-005,5.657093e-005
2.091706e+000,-6.193637e-005,5.640739e-005
2.092500e+000,-4.213016e-005,5.651223e-005
2.093294e+000,4.011597e-005,5.652554e-005
2.094088e+000,7.066453e-005,5.656925e-005
2.094882e+000,4.531930e-005,5.669844e-005
2.095676e+000,4.917983e-005,5.674413e-005
2.096471e+000,3.038071e-005,5.681181e-005
2.097265e+000,6.546120e-006,5.683323e-005
2.098059e+000,-5.539025e-006,5.682400e-005
2.098853e+000,-1.309224e-005,5.682468e-005
2.099647e+000,-1.510643e-005,5.682504e-005
2.100441e+000,-2.433814e-005,5.674278e-005
2.101235e+000,-2.970932e-005,5.665400e-005
2.102029e+000,-1.493858e-005,5.664992e-005
2.102824e+000,-3.189136e-006,5.664712e-005
2.103618e+000,-3.189136e-006,5.664737e-005
2.104412e+000,2.517739e-006,5.664138e-005
2.105206e+000,9.735256e-006,5.662670e-005
2.106000e+000,1.158160e-005,5.661618e-005
2.106794e+000,5.874723e-006,5.660656e-005
2.107588e+000,-2.853437e-006,5.659593e-005
2.108382e+000,-8.224612e-006,5.658869e-005
2.109176e+000,-1.091020e-005,5.658540e-005
2.109971e+000,4.196231e-006,5.658355e-005
2.110765e+000,1.963836e-005,5.657981e-005
2.111559e+000,2.349889e-006,5.658644e-005
2.112353e+000,-5.539025e-006,5.658304e-005
2.113147e+000,-8.224612e-006,5.657991e-005
2.113941e+000,-1.225299e-005,5.657661e-005
2.114735e+000,-7.888914e-006,5.657511e-005
2.115529e+000,-2.853437e-006,5.657308e-005
2.116324e+000,-5.539025e-006,5.656996e-005
2.117118e+000,-8.224612e-006,5.656683e-005
2.117912e+000,-1.493858e-005,5.656616e-005
2.118706e+000,-2.769513e-005,5.656968e-005
2.119500e+000,-4.280156e-005,5.658966e-005
2.120294e+000,-4.246586e-005,5.663985e-005
2.121088e+000,-3.373770e-005,5.668831e-005
2.121882e+000,-2.366674e-005,5.671805e-005
2.122676e+000,-1.191730e-005,5.673244e-005
2.123471e+000,-2.299535e-005,5.673557e-005
2.124265e+000,-1.091020e-005,5.674932e-005
2.125059e+000,1.829557e-005,5.675076e-005
2.125853e+000,4.145876e-005,5.675682e-005
2.126647e+000,3.843748e-005,5.679958e-005
2.127441e+000,-5.018692e-005,5.683567e-005
2.128235e+000,-8.744946e-005,5.689952e-005
2.129029e+000,-6.210422e-006,5.710448e-005
2.129824e+000,1.985657e-004,5.709754e-005
2.130618e+000,1.552606e-004,5.818348e-005
2.131412e+000,5.220111e-005,5.883796e-005
2.132206e+000,7.234302e-005,5.891062e-005
2.133000e+000,3.944457e-005,5.905109e-005
2.133794e+000,-8.392462e-006,5.909262e-005
2.134588e+000,-3.373770e-005,5.908377e-005
2.135382e+000,-4.347295e-005,5.910370e-005
2.136176e+000,-2.920577e-005,5.911720e-005
2.136971e+000,-1.896696e-005,5.913014e-005
2.137765e+000,-6.327916e-005,5.913224e-005
2.138559e+000,-7.200732e-005,5.923162e-005
2.139353e+000,-6.630045e-005,5.937061e-005
2.140147e+000,-5.320821e-005,5.948835e-005
2.140941e+000,-4.078737e-005,5.956381e-005
2.141735e+000,-4.313725e-005,5.954711e-005
2.142529e+000,-7.049668e-005,5.956703e-005
2.143324e+000,-7.872129e-005,5.969946e-005
2.144118e+000,-2.836652e-005,5.986174e-005
2.144912e+000,3.860533e-006,5.987914e-005
2.145706e+000,-6.210422e-006,5.987463e-005
2.146500e+000,-2.232395e-005,5.986972e-005
2.147294e+000,-1.678492e-006,5.987649e-005
2.148088e+000,-1.326009e-005,5.986631e-005
2.148882e+000,-2.198825e-005,5.985851e-005
2.149676e+000,6.495765e-005,5.986311e-005
2.150471e+000,1.163195e-004,5.996761e-005
2.151265e+000,3.138781e-005,6.031493e-005
2.152059e+000,-4.213016e-005,6.033379e-005
2.152853e+000,-2.601663e-005,6.037575e-005
2.153647e+000,-1.678492e-007,6.038771e-005
2.154441e+000,1.057450e-005,6.038457e-005
2.155235e+000,-2.836652e-005,6.038388e-005
2.156029e+000,-4.045167e-005,6.040069e-005
2.156824e+000,-3.239490e-005,6.042734e-005
2.157618e+000,-4.078737e-005,6.042559e-005
2.158412e+000,-5.018692e-005,6.042702e-005
2.159206e+000,-3.121996e-005,6.045309e-005
2.160000e+000,-1.091020e-005,6.045054e-005
2.160794e+000,4.582284e-005,6.043720e-005
2.161588e+000,1.028916e-004,6.048955e-005
2.162382e+000,7.267872e-005,6.076611e-005
2.163176e+000,9.903105e-006,6.090230e-005
2.163971e+000,-7.553216e-006,6.089954e-005
2.164765e+000,-3.189136e-006,6.076783e-005
2.165559e+000,-4.867628e-006,6.053780e-005
2.166353e+000,-2.182040e-006,6.039084e-005
2.167147e+000,-1.795987e-005,5.882821e-005
2.167941e+000,-2.064546e-005,5.820070e-005
2.168735e+000,-2.064546e-005,5.808267e-005
2.169529e+000,-3.256275e-005,5.800968e-005
2.170324e+000,-6.126497e-005,5.803878e-005
2.171118e+000,-1.085985e-004,5.812166e-005
2.171912e+000,-9.718471e-005,5.840501e-005
2.172706e+000,4.380865e-005,5.856979e-005
2.173500e+000,1.044022e-004,5.852378e-005
2.174294e+000,8.896010e-006,5.878499e-005
2.175088e+000,-3.575189e-005,5.876735e-005
2.175882e+000,-3.524834e-006,5.877175e-005
2.176676e+000,4.817273e-005,5.873613e-005
2.177471e+000,3.810178e-005,5.876438e-005
2.178265e+000,1.661708e-005,5.878393e-005
2.179059e+000,5.874723e-006,5.877163e-005
2.179853e+000,-5.001907e-005,5.875152e-005
2.180647e+000,-9.013504e-005,5.881007e-005
2.181441e+000,-4.716563e-005,5.899114e-005
2.182235e+000,3.709468e-005,5.885710e-005
2.183029e+000,8.039978e-005,5.877894e-005
2.183824e+000,9.449913e-005,5.894816e-005
2.184618e+000,9.114214e-005,5.918708e-005
2.185412e+000,4.246586e-005,5.940911e-005
2.186206e+000,3.407340e-005,5.933231e-005
2.187000e+000,3.356985e-007,5.926815e-005
2.187794e+000,-3.340200e-005,5.926342e-005
2.188588e+000,-5.085832e-005,5.928656e-005
2.189382e+000,-6.663615e-005,5.930128e-005
2.190176e+000,-8.375677e-005,5.928257e-005
2.190971e+000,-4.750134e-005,5.924124e-005
2.191765e+000,-1.258869e-005,5.928368e-005
2.192559e+000,-2.652018e-005,5.928754e-005
2.193353e+000,-4.850843e-005,5.930621e-005
2.194147e+000,-5.253681e-005,5.936880e-005
2.194941e+000,-4.011597e-005,5.944251e-005
2.195735e+000,5.035477e-007,5.943883e-005
2.196529e+000,4.682994e-005,5.919398e-005
2.197324e+000,2.870222e-005,5.896400e-005
2.198118e+000,-4.867628e-006,5.867877e-005
2.198912e+000,-5.203327e-006,5.823498e-005
2.199706e+000,-2.098116e-005,5.769870e-005
2.200500e+000,1.628138e-005,5.721992e-005
2.201294e+000,-3.524834e-006,5.648950e-005
2.202088e+000,-6.932174e-005,5.595725e-005
2.202882e+000,-1.326009e-005,5.592947e-005
2.203676e+000,2.534523e-005,5.402181e-005
2.204471e+000,1.762417e-005,5.307273e-005
2.205265e+000,-1.510643e-006,5.287118e-005
2.206059e+000,-9.567407e-006,5.255769e-005
2.206853e+000,7.217518e-006,5.242576e-005
2.207647e+000,7.771420e-005,5.238323e-005
2.208441e+000,5.824369e-005,5.168683e-005
2.209235e+000,3.508049e-005,4.969171e-005
2.210029e+000,9.517052e-005,4.897005e-005
2.210824e+000,9.886320e-005,4.908787e-005
2.211618e+000,2.047761e-005,4.935543e-005
2.212412e+000,-3.407340e-005,4.936881e-005
2.213206e+000,-8.979935e-005,4.937515e-005
2.214000e+000,-1.223621e-004,4.958200e-005
2.214794e+000,-3.373770e-005,4.994362e-005
2.215588e+000,5.690089e-005,4.982582e-005
2.216382e+000,-4.179446e-005,4.975413e-005
2.217176e+000,-4.380865e-005,4.960465e-005
2.217971e+000,7.888914e-006,4.944887e-005
2.218765e+000,-8.392462e-006,4.925433e-005
2.219559e+000,-7.217518e-006,4.910993e-005
2.220353e+000,1.359579e-005,4.898573e-005
