X [s],L DELTOID MEDIUS: EMG 8 [V],L DELTOID MEDIUS: EMG 8->filter (FilterSlidingRMS21) [V]
0.000000e+000,0.000000e+000,0.000000e+000
7.941176e-004,0.000000e+000,0.000000e+000
1.588235e-003,0.000000e+000,0.000000e+000
2.382353e-003,0.000000e+000,0.000000e+000
3.176471e-003,0.000000e+000,0.000000e+000
3.970588e-003,0.000000e+000,0.000000e+000
4.764706e-003,0.000000e+000,0.000000e+000
5.558824e-003,0.000000e+000,0.000000e+000
6.352941e-003,0.000000e+000,0.000000e+000
7.147059e-003,0.000000e+000,0.000000e+000
7.941176e-003,0.000000e+000,0.000000e+000
8.735294e-003,0.000000e+000,0.000000e+000
9.529412e-003,0.000000e+000,0.000000e+000
1.032353e-002,0.000000e+000,0.000000e+000
1.111765e-002,0.000000e+000,0.000000e+000
1.191176e-002,0.000000e+000,0.000000e+000
1.270588e-002,0.000000e+000,0.000000e+000
1.350000e-002,0.000000e+000,0.000000e+000
1.429412e-002,0.000000e+000,0.000000e+000
1.508824e-002,0.000000e+000,0.000000e+000
1.588235e-002,0.000000e+000,0.000000e+000
1.667647e-002,0.000000e+000,0.000000e+000
1.747059e-002,0.000000e+000,0.000000e+000
1.826471e-002,0.000000e+000,0.000000e+000
1.905882e-002,0.000000e+000,0.000000e+000
1.985294e-002,0.000000e+000,0.000000e+000
2.064706e-002,0.000000e+000,0.000000e+000
2.144118e-002,0.000000e+000,0.000000e+000
2.223529e-002,0.000000e+000,0.000000e+000
2.302941e-002,0.000000e+000,0.000000e+000
2.382353e-002,0.000000e+000,0.000000e+000
2.461765e-002,0.000000e+000,0.000000e+000
2.541176e-002,0.000000e+000,0.000000e+000
2.620588e-002,0.000000e+000,0.000000e+000
2.700000e-002,0.000000e+000,0.000000e+000
2.779412e-002,0.000000e+000,0.000000e+000
2.858824e-002,0.000000e+000,0.000000e+000
2.938235e-002,0.000000e+000,0.000000e+000
3.017647e-002,0.000000e+000,0.000000e+000
3.097059e-002,0.000000e+000,0.000000e+000
3.176471e-002,0.000000e+000,0.000000e+000
3.255882e-002,0.000000e+000,0.000000e+000
3.335294e-002,0.000000e+000,0.000000e+000
3.414706e-002,0.000000e+000,0.000000e+000
3.494118e-002,0.000000e+000,0.000000e+000
3.573529e-002,0.000000e+000,0.000000e+000
3.652941e-002,0.000000e+000,0.000000e+000
3.732353e-002,0.000000e+000,0.000000e+000
3.811765e-002,0.000000e+000,0.000000e+000
3.891176e-002,0.000000e+000,0.000000e+000
3.970588e-002,0.000000e+000,0.000000e+000
4.050000e-002,0.000000e+000,0.000000e+000
4.129412e-002,0.000000e+000,0.000000e+000
4.208824e-002,0.000000e+000,0.000000e+000
4.288235e-002,0.000000e+000,0.000000e+000
4.367647e-002,0.000000e+000,0.000000e+000
4.447059e-002,0.000000e+000,0.000000e+000
4.526471e-002,0.000000e+000,0.000000e+000
4.605882e-002,0.000000e+000,0.000000e+000
4.685294e-002,0.000000e+000,0.000000e+000
4.764706e-002,0.000000e+000,0.000000e+000
4.844118e-002,0.000000e+000,0.000000e+000
4.923529e-002,0.000000e+000,0.000000e+000
5.002941e-002,0.000000e+000,0.000000e+000
5.082353e-002,0.000000e+000,0.000000e+000
5.161765e-002,0.000000e+000,0.000000e+000
5.241176e-002,0.000000e+000,0.000000e+000
5.320588e-002,0.000000e+000,0.000000e+000
5.400000e-002,0.000000e+000,0.000000e+000
5.479412e-002,0.000000e+000,0.000000e+000
5.558824e-002,0.000000e+000,0.000000e+000
5.638235e-002,0.000000e+000,0.000000e+000
5.717647e-002,0.000000e+000,0.000000e+000
5.797059e-002,0.000000e+000,0.000000e+000
5.876471e-002,0.000000e+000,0.000000e+000
5.955882e-002,0.000000e+000,0.000000e+000
6.035294e-002,0.000000e+000,0.000000e+000
6.114706e-002,0.000000e+000,0.000000e+000
6.194118e-002,0.000000e+000,0.000000e+000
6.273529e-002,0.000000e+000,0.000000e+000
6.352941e-002,0.000000e+000,0.000000e+000
6.432353e-002,0.000000e+000,0.000000e+000
6.511765e-002,0.000000e+000,0.000000e+000
6.591176e-002,0.000000e+000,0.000000e+000
6.670588e-002,0.000000e+000,0.000000e+000
6.750000e-002,0.000000e+000,0.000000e+000
6.829412e-002,0.000000e+000,0.000000e+000
6.908824e-002,0.000000e+000,0.000000e+000
6.988235e-002,0.000000e+000,0.000000e+000
7.067647e-002,0.000000e+000,0.000000e+000
7.147059e-002,0.000000e+000,0.000000e+000
7.226471e-002,0.000000e+000,0.000000e+000
7.305882e-002,0.000000e+000,0.000000e+000
7.385294e-002,0.000000e+000,0.000000e+000
7.464706e-002,0.000000e+000,0.000000e+000
7.544118e-002,0.000000e+000,0.000000e+000
7.623529e-002,0.000000e+000,0.000000e+000
7.702941e-002,0.000000e+000,0.000000e+000
7.782353e-002,0.000000e+000,0.000000e+000
7.861765e-002,0.000000e+000,0.000000e+000
7.941176e-002,0.000000e+000,0.000000e+000
8.020588e-002,0.000000e+000,0.000000e+000
8.100000e-002,0.000000e+000,0.000000e+000
8.179412e-002,0.000000e+000,0.000000e+000
8.258824e-002,0.000000e+000,0.000000e+000
8.338235e-002,0.000000e+000,0.000000e+000
8.417647e-002,0.000000e+000,0.000000e+000
8.497059e-002,0.000000e+000,0.000000e+000
8.576471e-002,0.000000e+000,0.000000e+000
8.655882e-002,0.000000e+000,0.000000e+000
8.735294e-002,0.000000e+000,0.000000e+000
8.814706e-002,0.000000e+000,0.000000e+000
8.894118e-002,0.000000e+000,0.000000e+000
8.973529e-002,0.000000e+000,0.000000e+000
9.052941e-002,0.000000e+000,0.000000e+000
9.132353e-002,0.000000e+000,0.000000e+000
9.211765e-002,0.000000e+000,0.000000e+000
9.291176e-002,0.000000e+000,0.000000e+000
9.370588e-002,0.000000e+000,0.000000e+000
9.450000e-002,0.000000e+000,0.000000e+000
9.529412e-002,0.000000e+000,0.000000e+000
9.608824e-002,0.000000e+000,0.000000e+000
9.688235e-002,0.000000e+000,0.000000e+000
9.767647e-002,0.000000e+000,0.000000e+000
9.847059e-002,0.000000e+000,0.000000e+000
9.926471e-002,0.000000e+000,0.000000e+000
1.000588e-001,0.000000e+000,0.000000e+000
1.008529e-001,0.000000e+000,0.000000e+000
1.016471e-001,0.000000e+000,0.000000e+000
1.024412e-001,0.000000e+000,0.000000e+000
1.032353e-001,0.000000e+000,0.000000e+000
1.040294e-001,0.000000e+000,0.000000e+000
1.048235e-001,0.000000e+000,0.000000e+000
1.056176e-001,0.000000e+000,0.000000e+000
1.064118e-001,0.000000e+000,0.000000e+000
1.072059e-001,0.000000e+000,0.000000e+000
1.080000e-001,-1.795987e-005,0.000000e+000
1.087941e-001,-1.225299e-005,0.000000e+000
1.095882e-001,-1.242084e-005,0.000000e+000
1.103824e-001,-1.393149e-005,0.000000e+000
1.111765e-001,-1.762417e-005,0.000000e+000
1.119706e-001,-1.493858e-005,0.000000e+000
1.127647e-001,-1.376364e-005,0.000000e+000
1.135588e-001,-1.359579e-005,0.000000e+000
1.143529e-001,-1.258869e-005,0.000000e+000
1.151471e-001,-1.493858e-005,0.000000e+000
1.159412e-001,-1.560998e-005,0.000000e+000
1.167353e-001,-1.426719e-005,0.000000e+000
1.175294e-001,-1.158160e-005,0.000000e+000
1.183235e-001,-8.560311e-006,0.000000e+000
1.191176e-001,-9.231709e-006,0.000000e+000
1.199118e-001,-1.023880e-005,0.000000e+000
1.207059e-001,-1.527428e-005,0.000000e+000
1.215000e-001,-1.628138e-005,0.000000e+000
1.222941e-001,-1.762417e-005,0.000000e+000
1.230882e-001,-1.795987e-005,0.000000e+000
1.238824e-001,-1.896696e-005,0.000000e+000
1.246765e-001,-1.829557e-005,0.000000e+000
1.254706e-001,-2.198825e-005,0.000000e+000
1.262647e-001,-2.131685e-005,0.000000e+000
1.270588e-001,-1.795987e-005,0.000000e+000
1.278529e-001,-1.930266e-005,0.000000e+000
1.286471e-001,-1.829557e-005,0.000000e+000
1.294412e-001,-1.493858e-005,0.000000e+000
1.302353e-001,-1.292439e-005,0.000000e+000
1.310294e-001,-1.493858e-005,0.000000e+000
1.318235e-001,-1.628138e-005,0.000000e+000
1.326176e-001,-1.359579e-005,0.000000e+000
1.334118e-001,-1.158160e-005,0.000000e+000
1.342059e-001,-1.040665e-005,0.000000e+000
1.350000e-001,-1.326009e-005,0.000000e+000
1.357941e-001,-9.567407e-006,0.000000e+000
1.365882e-001,-7.553216e-006,0.000000e+000
1.373824e-001,-9.063859e-006,0.000000e+000
1.381765e-001,-1.158160e-005,0.000000e+000
1.389706e-001,-1.174945e-005,0.000000e+000
1.397647e-001,-7.888914e-006,0.000000e+000
1.405588e-001,-1.023880e-005,0.000000e+000
1.413529e-001,-8.560311e-006,0.000000e+000
1.421471e-001,-6.210422e-006,0.000000e+000
1.429412e-001,-1.023880e-005,0.000000e+000
1.437353e-001,-1.309224e-005,0.000000e+000
1.445294e-001,-1.258869e-005,0.000000e+000
1.453235e-001,-1.493858e-005,0.000000e+000
1.461176e-001,-1.107805e-005,0.000000e+000
1.469118e-001,-9.903105e-006,0.000000e+000
1.477059e-001,-1.124590e-005,0.000000e+000
1.485000e-001,-1.225299e-005,0.000000e+000
1.492941e-001,-1.393149e-005,0.000000e+000
1.500882e-001,-1.326009e-005,0.000000e+000
1.508824e-001,-1.493858e-005,0.000000e+000
1.516765e-001,-1.359579e-005,0.000000e+000
1.524706e-001,-1.292439e-005,0.000000e+000
1.532647e-001,-1.728847e-005,0.000000e+000
1.540588e-001,-1.829557e-005,0.000000e+000
1.548529e-001,-1.628138e-005,0.000000e+000
1.556471e-001,-1.829557e-005,0.000000e+000
1.564412e-001,-1.695277e-005,0.000000e+000
1.572353e-001,-1.292439e-005,0.000000e+000
1.580294e-001,-1.661708e-005,0.000000e+000
1.588235e-001,-1.644922e-005,0.000000e+000
1.596176e-001,-1.023880e-005,0.000000e+000
1.604118e-001,-1.225299e-005,0.000000e+000
1.612059e-001,-1.510643e-005,0.000000e+000
1.620000e-001,-1.560998e-005,0.000000e+000
1.627941e-001,-1.359579e-005,0.000000e+000
1.635882e-001,-1.124590e-005,0.000000e+000
1.643824e-001,-1.258869e-005,0.000000e+000
1.651765e-001,-1.023880e-005,0.000000e+000
1.659706e-001,-5.874723e-006,0.000000e+000
1.667647e-001,-1.091020e-005,0.000000e+000
1.675588e-001,-1.225299e-005,0.000000e+000
1.683529e-001,-1.426719e-005,0.000000e+000
1.691471e-001,-1.829557e-005,0.000000e+000
1.699412e-001,-1.695277e-005,0.000000e+000
1.707353e-001,-1.762417e-005,0.000000e+000
1.715294e-001,-1.963836e-005,0.000000e+000
1.723235e-001,-1.829557e-005,0.000000e+000
1.731176e-001,-2.098116e-005,0.000000e+000
1.739118e-001,-2.198825e-005,0.000000e+000
1.747059e-001,-1.829557e-005,0.000000e+000
1.755000e-001,-1.695277e-005,0.000000e+000
1.762941e-001,-1.829557e-005,0.000000e+000
1.770882e-001,-1.762417e-005,0.000000e+000
1.778824e-001,-1.695277e-005,0.000000e+000
1.786765e-001,-1.762417e-005,0.000000e+000
1.794706e-001,-1.728847e-005,0.000000e+000
1.802647e-001,-1.628138e-005,0.000000e+000
1.810588e-001,-1.393149e-005,0.000000e+000
1.818529e-001,-1.695277e-005,0.000000e+000
1.826471e-001,-1.628138e-005,0.000000e+000
1.834412e-001,-1.326009e-005,0.000000e+000
1.842353e-001,-1.258869e-005,0.000000e+000
1.850294e-001,-1.661708e-005,0.000000e+000
1.858235e-001,-1.292439e-005,0.000000e+000
1.866176e-001,-9.231709e-006,0.000000e+000
1.874118e-001,-1.040665e-005,0.000000e+000
1.882059e-001,-9.567407e-006,0.000000e+000
1.890000e-001,-1.057450e-005,0.000000e+000
1.897941e-001,-1.225299e-005,0.000000e+000
1.905882e-001,-1.359579e-005,0.000000e+000
1.913824e-001,-1.628138e-005,0.000000e+000
1.921765e-001,-1.393149e-005,0.000000e+000
1.929706e-001,-1.124590e-005,0.000000e+000
1.937647e-001,-1.225299e-005,0.000000e+000
1.945588e-001,-1.493858e-005,0.000000e+000
1.953529e-001,-1.359579e-005,0.000000e+000
1.961471e-001,-1.443504e-005,0.000000e+000
1.969412e-001,-1.829557e-005,0.000000e+000
1.977353e-001,-1.829557e-005,0.000000e+000
1.985294e-001,-1.292439e-005,0.000000e+000
1.993235e-001,-1.225299e-005,0.000000e+000
2.001176e-001,-1.258869e-005,0.000000e+000
2.009118e-001,-1.409934e-005,0.000000e+000
2.017059e-001,-1.292439e-005,0.000000e+000
2.025000e-001,-8.896010e-006,0.000000e+000
2.032941e-001,-1.023880e-005,0.000000e+000
2.040882e-001,-9.567407e-006,0.000000e+000
2.048824e-001,-7.553216e-006,0.000000e+000
2.056765e-001,-9.063859e-006,0.000000e+000
2.064706e-001,-1.124590e-005,0.000000e+000
2.072647e-001,-1.158160e-005,0.000000e+000
2.080588e-001,-1.309224e-005,0.000000e+000
2.088529e-001,-1.829557e-005,0.000000e+000
2.096471e-001,-1.309224e-005,0.000000e+000
2.104412e-001,-1.023880e-005,0.000000e+000
2.112353e-001,-8.896010e-006,0.000000e+000
2.120294e-001,-1.258869e-005,0.000000e+000
2.128235e-001,-1.628138e-005,0.000000e+000
2.136176e-001,-1.107805e-005,0.000000e+000
2.144118e-001,-1.057450e-005,0.000000e+000
2.152059e-001,-1.359579e-005,0.000000e+000
2.160000e-001,-1.091020e-005,0.000000e+000
2.167941e-001,-9.903105e-006,0.000000e+000
2.175882e-001,-8.224612e-006,0.000000e+000
2.183824e-001,-1.091020e-005,0.000000e+000
2.191765e-001,-1.493858e-005,0.000000e+000
2.199706e-001,-1.191730e-005,0.000000e+000
2.207647e-001,-1.292439e-005,0.000000e+000
2.215588e-001,-1.628138e-005,0.000000e+000
2.223529e-001,-1.896696e-005,0.000000e+000
2.231471e-001,-1.762417e-005,0.000000e+000
2.239412e-001,-1.560998e-005,0.000000e+000
2.247353e-001,-1.359579e-005,0.000000e+000
2.255294e-001,-9.567407e-006,0.000000e+000
2.263235e-001,-8.224612e-006,0.000000e+000
2.271176e-001,-1.174945e-005,0.000000e+000
2.279118e-001,-1.023880e-005,0.000000e+000
2.287059e-001,-1.091020e-005,0.000000e+000
2.295000e-001,-1.644922e-005,0.000000e+000
2.302941e-001,-1.695277e-005,0.000000e+000
2.310882e-001,-1.829557e-005,0.000000e+000
2.318824e-001,-1.628138e-005,0.000000e+000
2.326765e-001,-1.762417e-005,0.000000e+000
2.334706e-001,-1.913481e-005,0.000000e+000
2.342647e-001,-1.560998e-005,0.000000e+000
2.350588e-001,-1.628138e-005,0.000000e+000
2.358529e-001,-1.846342e-005,0.000000e+000
2.366471e-001,-1.527428e-005,0.000000e+000
2.374412e-001,-1.225299e-005,0.000000e+000
2.382353e-001,-9.903105e-006,0.000000e+000
2.390294e-001,-1.225299e-005,0.000000e+000
2.398235e-001,-1.359579e-005,0.000000e+000
2.406176e-001,-1.644922e-005,0.000000e+000
2.414118e-001,-1.829557e-005,0.000000e+000
2.422059e-001,-1.846342e-005,0.000000e+000
2.430000e-001,-1.997406e-005,0.000000e+000
2.437941e-001,-1.762417e-005,0.000000e+000
2.445882e-001,-1.594568e-005,0.000000e+000
2.453824e-001,-1.661708e-005,0.000000e+000
2.461765e-001,-1.896696e-005,0.000000e+000
2.469706e-001,-2.030976e-005,0.000000e+000
2.477647e-001,-1.628138e-005,0.000000e+000
2.485588e-001,-1.023880e-005,0.000000e+000
2.493529e-001,-1.158160e-005,1.090071e-005
2.501471e-001,-1.493858e-005,1.092029e-005
2.509412e-001,-1.644922e-005,1.095278e-005
2.517353e-001,-1.594568e-005,1.099205e-005
2.525294e-001,-1.426719e-005,1.102882e-005
2.533235e-001,-1.225299e-005,1.105817e-005
2.541176e-001,-1.091020e-005,1.107977e-005
2.549118e-001,-1.393149e-005,1.109686e-005
2.557059e-001,-1.493858e-005,1.112468e-005
2.565000e-001,-1.023880e-005,1.115658e-005
2.572941e-001,-9.567407e-006,1.117153e-005
2.580882e-001,-1.158160e-005,1.118457e-005
2.588824e-001,-1.376364e-005,1.120365e-005
2.596765e-001,-1.359579e-005,1.123054e-005
2.604706e-001,-1.292439e-005,1.125672e-005
2.612647e-001,-1.661708e-005,1.128032e-005
2.620588e-001,-1.628138e-005,1.131924e-005
2.628529e-001,-1.292439e-005,1.135647e-005
2.636471e-001,-1.426719e-005,1.137986e-005
2.644412e-001,-9.567407e-006,1.140831e-005
2.652353e-001,-1.174945e-005,1.142108e-005
2.660294e-001,-1.359579e-005,1.144031e-005
2.668235e-001,-1.359579e-005,1.146601e-005
2.676176e-001,-1.091020e-005,1.149165e-005
2.684118e-001,-9.735256e-006,1.150813e-005
2.692059e-001,-1.493858e-005,1.152124e-005
2.700000e-001,-1.997406e-005,1.155204e-005
2.707941e-001,-1.829557e-005,1.160691e-005
2.715882e-001,-1.628138e-005,1.165274e-005
2.723824e-001,-1.695277e-005,1.168891e-005
2.731765e-001,-1.644922e-005,1.172799e-005
2.739706e-001,-1.577783e-005,1.176467e-005
2.747647e-001,-1.628138e-005,1.179832e-005
2.755588e-001,-1.242084e-005,1.183404e-005
2.763529e-001,-9.567407e-006,1.185478e-005
2.771471e-001,-1.393149e-005,1.186707e-005
2.779412e-001,-1.158160e-005,1.189308e-005
2.787353e-001,-9.567407e-006,1.191103e-005
2.795294e-001,-8.560311e-006,1.192326e-005
2.803235e-001,-7.553216e-006,1.193304e-005
2.811176e-001,-4.867628e-006,1.194065e-005
2.819118e-001,-9.063859e-006,1.194381e-005
2.827059e-001,-1.158160e-005,1.195476e-005
2.835000e-001,-1.594568e-005,1.197261e-005
2.842941e-001,-1.896696e-005,1.200638e-005
2.850882e-001,-1.963836e-005,1.205400e-005
2.858824e-001,-2.098116e-005,1.210484e-005
2.866765e-001,-2.165255e-005,1.216261e-005
2.874706e-001,-1.896696e-005,1.222384e-005
2.882647e-001,-1.863127e-005,1.227061e-005
2.890588e-001,-1.560998e-005,1.231557e-005
2.898529e-001,-1.678492e-005,1.234704e-005
2.906471e-001,-1.762417e-005,1.238332e-005
2.914412e-001,-1.309224e-005,1.242320e-005
2.922353e-001,-1.258869e-005,1.244515e-005
2.930294e-001,-1.225299e-005,1.246541e-005
2.938235e-001,-9.567407e-006,1.248457e-005
2.946176e-001,-5.539025e-006,1.249624e-005
2.954118e-001,-6.881819e-006,1.250015e-005
2.962059e-001,-1.174945e-005,1.250618e-005
2.970000e-001,-1.258869e-005,1.252375e-005
2.977941e-001,-1.309224e-005,1.254388e-005
2.985882e-001,-1.628138e-005,1.256562e-005
2.993824e-001,-1.560998e-005,1.259917e-005
3.001765e-001,-1.309224e-005,1.262993e-005
3.009706e-001,-1.359579e-005,1.265152e-005
3.017647e-001,-1.225299e-005,1.267476e-005
3.025588e-001,-1.225299e-005,1.269361e-005
3.033529e-001,-1.292439e-005,1.271243e-005
3.041471e-001,-1.158160e-005,1.273334e-005
3.049412e-001,-7.553216e-006,1.275010e-005
3.057353e-001,-7.553216e-006,1.275722e-005
3.065294e-001,-8.560311e-006,1.276434e-005
3.073235e-001,-8.224612e-006,1.277348e-005
3.081176e-001,-1.426719e-005,1.278191e-005
3.089118e-001,-1.560998e-005,1.280724e-005
3.097059e-001,-1.628138e-005,1.283750e-005
3.105000e-001,-1.292439e-005,1.287034e-005
3.112941e-001,-1.359579e-005,1.289099e-005
3.120882e-001,-1.728847e-005,1.291380e-005
3.128824e-001,-1.426719e-005,1.295061e-005
3.136765e-001,-1.292439e-005,1.297561e-005
3.144706e-001,-1.393149e-005,1.299609e-005
3.152647e-001,-1.493858e-005,1.301985e-005
3.160588e-001,-1.695277e-005,1.304712e-005
3.168529e-001,-1.560998e-005,1.308214e-005
3.176471e-001,-1.258869e-005,1.311177e-005
3.184412e-001,-8.224612e-006,1.313100e-005
3.192353e-001,-9.063859e-006,1.313920e-005
3.200294e-001,-1.510643e-005,1.314916e-005
3.208235e-001,-1.426719e-005,1.317676e-005
3.216176e-001,-1.527428e-005,1.320134e-005
3.224118e-001,-2.064546e-005,1.322945e-005
3.232059e-001,-2.064546e-005,1.328065e-005
3.240000e-001,-1.896696e-005,1.333167e-005
3.247941e-001,-1.762417e-005,1.337457e-005
3.255882e-001,-1.225299e-005,1.341150e-005
3.263824e-001,-1.661708e-005,1.342931e-005
3.271765e-001,-1.762417e-005,1.346201e-005
3.279706e-001,-1.460288e-005,1.349870e-005
3.287647e-001,-1.695277e-005,1.352383e-005
3.295588e-001,-2.064546e-005,1.355763e-005
3.303529e-001,-1.628138e-005,1.360760e-005
3.311471e-001,-1.930266e-005,1.363858e-005
3.319412e-001,-1.863127e-005,1.368202e-005
3.327353e-001,-1.292439e-005,1.372236e-005
3.335294e-001,-1.426719e-005,1.374173e-005
3.343235e-001,-1.544213e-005,1.376529e-005
3.351176e-001,-1.426719e-005,1.379285e-005
3.359118e-001,-1.258869e-005,1.381633e-005
3.367059e-001,-8.896010e-006,1.383458e-005
3.375000e-001,-1.174945e-005,1.384369e-005
3.382941e-001,-1.326009e-005,1.385956e-005
3.390882e-001,-1.158160e-005,1.387974e-005
3.398824e-001,-1.091020e-005,1.389513e-005
3.406765e-001,-1.258869e-005,1.390876e-005
3.414706e-001,-1.493858e-005,1.392689e-005
3.422647e-001,-1.426719e-005,1.395238e-005
3.430588e-001,-1.376364e-005,1.397559e-005
3.438529e-001,-1.258869e-005,1.399716e-005
3.446471e-001,-1.628138e-005,1.401518e-005
3.454412e-001,-1.695277e-005,1.404526e-005
3.462353e-001,-1.628138e-005,1.407781e-005
3.470294e-001,-1.628138e-005,1.410776e-005
3.478235e-001,-1.376364e-005,1.413765e-005
3.486176e-001,-9.567407e-006,1.415897e-005
3.494118e-001,-9.567407e-006,1.416926e-005
3.502059e-001,-1.191730e-005,1.417954e-005
3.510000e-001,-1.124590e-005,1.419548e-005
3.517941e-001,-1.225299e-005,1.420966e-005
3.525882e-001,-1.158160e-005,1.422648e-005
3.533824e-001,-1.510643e-005,1.424148e-005
3.541765e-001,-1.426719e-005,1.426698e-005
3.549706e-001,-1.728847e-005,1.428968e-005
3.557647e-001,-1.829557e-005,1.432294e-005
3.565588e-001,-1.493858e-005,1.436011e-005
3.573529e-001,-1.493858e-005,1.438483e-005
3.581471e-001,-1.493858e-005,1.437383e-005
3.589412e-001,-1.023880e-005,1.438191e-005
3.597353e-001,-1.225299e-005,1.437644e-005
3.605294e-001,-1.292439e-005,1.437157e-005
3.613235e-001,-1.091020e-005,1.435565e-005
3.621176e-001,-9.567407e-006,1.434410e-005
3.629118e-001,-1.225299e-005,1.433323e-005
3.637059e-001,-1.258869e-005,1.432937e-005
3.645000e-001,-1.091020e-005,1.432937e-005
3.652941e-001,-1.292439e-005,1.431779e-005
3.660882e-001,-1.628138e-005,1.430927e-005
3.668824e-001,-1.225299e-005,1.431611e-005
3.676765e-001,-1.359579e-005,1.431789e-005
3.684706e-001,-1.493858e-005,1.433030e-005
3.692647e-001,-1.359579e-005,1.434561e-005
3.700588e-001,-1.359579e-005,1.435449e-005
3.708529e-001,-1.493858e-005,1.434912e-005
3.716471e-001,-1.762417e-005,1.434446e-005
3.724412e-001,-1.628138e-005,1.434446e-005
3.732353e-001,-1.191730e-005,1.433808e-005
3.740294e-001,-1.158160e-005,1.431388e-005
3.748235e-001,-1.225299e-005,1.429155e-005
3.756176e-001,-1.107805e-005,1.425436e-005
3.764118e-001,-1.292439e-005,1.421726e-005
3.772059e-001,-1.292439e-005,1.419983e-005
3.780000e-001,-1.359579e-005,1.417676e-005
3.787941e-001,-1.359579e-005,1.415992e-005
3.795882e-001,-7.553216e-006,1.415561e-005
3.803824e-001,-9.735256e-006,1.414323e-005
3.811765e-001,-1.460288e-005,1.412877e-005
3.819706e-001,-1.896696e-005,1.412292e-005
3.827647e-001,-1.628138e-005,1.414263e-005
3.835588e-001,-1.225299e-005,1.415736e-005
3.843529e-001,-1.191730e-005,1.416207e-005
3.851471e-001,-8.392462e-006,1.415827e-005
3.859412e-001,-5.539025e-006,1.415589e-005
3.867353e-001,-9.735256e-006,1.415293e-005
3.875294e-001,-1.057450e-005,1.415435e-005
3.883235e-001,-1.292439e-005,1.415184e-005
3.891176e-001,-1.426719e-005,1.415510e-005
3.899118e-001,-1.594568e-005,1.417099e-005
3.907059e-001,-1.896696e-005,1.418777e-005
3.915000e-001,-1.980621e-005,1.421988e-005
3.922941e-001,-1.896696e-005,1.425944e-005
3.930882e-001,-1.628138e-005,1.428788e-005
3.938824e-001,-1.359579e-005,1.429831e-005
3.946765e-001,-1.309224e-005,1.430125e-005
3.954706e-001,-1.158160e-005,1.429549e-005
3.962647e-001,-1.225299e-005,1.429676e-005
3.970588e-001,-1.292439e-005,1.430255e-005
3.978529e-001,-1.258869e-005,1.430707e-005
3.986471e-001,-6.881819e-006,1.430800e-005
3.994412e-001,-6.378271e-006,1.429166e-005
4.002353e-001,-1.023880e-005,1.427659e-005
4.010294e-001,-1.225299e-005,1.426339e-005
4.018235e-001,-1.359579e-005,1.425952e-005
4.026176e-001,-1.493858e-005,1.426150e-005
4.034118e-001,-1.359579e-005,1.425305e-005
4.042059e-001,-1.527428e-005,1.423629e-005
4.050000e-001,-1.695277e-005,1.423274e-005
4.057941e-001,-1.762417e-005,1.422744e-005
4.065882e-001,-1.460288e-005,1.423004e-005
4.073824e-001,-1.493858e-005,1.423521e-005
4.081765e-001,-1.510643e-005,1.422928e-005
4.089706e-001,-1.225299e-005,1.422454e-005
4.097647e-001,-1.426719e-005,1.422961e-005
4.105588e-001,-1.560998e-005,1.423559e-005
4.113529e-001,-1.560998e-005,1.423732e-005
4.121471e-001,-1.493858e-005,1.423732e-005
4.129412e-001,-1.628138e-005,1.424160e-005
4.137353e-001,-1.594568e-005,1.425709e-005
4.145294e-001,-1.628138e-005,1.426778e-005
4.153235e-001,-1.309224e-005,1.428566e-005
4.161176e-001,-1.393149e-005,1.430091e-005
4.169118e-001,-1.628138e-005,1.430926e-005
4.177059e-001,-1.460288e-005,1.432205e-005
4.185000e-001,-1.628138e-005,1.432313e-005
4.192941e-001,-1.493858e-005,1.431538e-005
4.200882e-001,-1.292439e-005,1.430823e-005
4.208824e-001,-1.493858e-005,1.429225e-005
4.216765e-001,-1.896696e-005,1.427413e-005
4.224706e-001,-1.930266e-005,1.427692e-005
4.232647e-001,-1.628138e-005,1.426938e-005
4.240588e-001,-1.560998e-005,1.424499e-005
4.248529e-001,-1.644922e-005,1.423480e-005
4.256471e-001,-1.628138e-005,1.423292e-005
4.264412e-001,-1.628138e-005,1.422513e-005
4.272353e-001,-1.644922e-005,1.422003e-005
4.280294e-001,-2.098116e-005,1.421815e-005
4.288235e-001,-2.165255e-005,1.423265e-005
4.296176e-001,-1.829557e-005,1.425165e-005
4.304118e-001,-2.047761e-005,1.425943e-005
4.312059e-001,-1.930266e-005,1.428456e-005
4.320000e-001,-1.594568e-005,1.429406e-005
4.327941e-001,-1.292439e-005,1.429285e-005
4.335882e-001,-1.359579e-005,1.429187e-005
4.343824e-001,-1.225299e-005,1.429481e-005
4.351765e-001,-1.661708e-005,1.428077e-005
4.359706e-001,-1.779202e-005,1.429293e-005
4.367647e-001,-1.460288e-005,1.431868e-005
4.375588e-001,-1.258869e-005,1.433034e-005
4.383529e-001,-1.292439e-005,1.433778e-005
4.391471e-001,-1.292439e-005,1.434391e-005
4.399412e-001,-1.124590e-005,1.434579e-005
4.407353e-001,-8.896010e-006,1.433931e-005
4.415294e-001,-6.881819e-006,1.431864e-005
4.423235e-001,-8.896010e-006,1.430232e-005
4.431176e-001,-8.896010e-006,1.429705e-005
4.439118e-001,-8.896010e-006,1.428914e-005
4.447059e-001,-6.546120e-006,1.427308e-005
4.455000e-001,-9.567407e-006,1.425723e-005
4.462941e-001,-9.567407e-006,1.424417e-005
4.470882e-001,-6.378271e-006,1.421696e-005
4.478824e-001,-4.531929e-006,1.418399e-005
4.486765e-001,-5.539025e-006,1.416753e-005
4.494706e-001,-4.867628e-006,1.415410e-005
4.502647e-001,-7.553216e-006,1.413893e-005
4.510588e-001,-8.224612e-006,1.412296e-005
4.518529e-001,-1.091020e-005,1.411174e-005
4.526471e-001,-1.292439e-005,1.411625e-005
4.534412e-001,-1.527428e-005,1.412326e-005
4.542353e-001,-1.560998e-005,1.413924e-005
4.550294e-001,-1.527428e-005,1.416024e-005
4.558235e-001,-1.309224e-005,1.417722e-005
4.566176e-001,-1.628138e-005,1.418227e-005
4.574118e-001,-1.359579e-005,1.419696e-005
4.582059e-001,-1.242084e-005,1.419847e-005
4.590000e-001,-1.527428e-005,1.417822e-005
4.597941e-001,-1.594568e-005,1.418517e-005
4.605882e-001,-1.594568e-005,1.420193e-005
4.613824e-001,-1.628138e-005,1.422156e-005
4.621765e-001,-1.628138e-005,1.423349e-005
4.629706e-001,-1.695277e-005,1.423349e-005
4.637647e-001,-1.527428e-005,1.425190e-005
4.645588e-001,-1.258869e-005,1.426547e-005
4.653529e-001,-1.560998e-005,1.426252e-005
4.661471e-001,-2.098116e-005,1.427643e-005
4.669412e-001,-2.316319e-005,1.431454e-005
4.677353e-001,-2.198825e-005,1.436661e-005
4.685294e-001,-2.165255e-005,1.440694e-005
4.693235e-001,-2.030976e-005,1.443407e-005
4.701176e-001,-1.426719e-005,1.446388e-005
4.709118e-001,-1.628138e-005,1.446790e-005
4.717059e-001,-1.896696e-005,1.446790e-005
4.725000e-001,-1.292439e-005,1.446790e-005
4.732941e-001,-1.292439e-005,1.445209e-005
4.740882e-001,-1.493858e-005,1.444364e-005
4.748824e-001,-1.225299e-005,1.444787e-005
4.756765e-001,-1.292439e-005,1.445432e-005
4.764706e-001,-1.359579e-005,1.446527e-005
4.772647e-001,-1.695277e-005,1.447042e-005
4.780588e-001,-1.829557e-005,1.449049e-005
4.788529e-001,-1.577783e-005,1.451418e-005
4.796471e-001,-1.628138e-005,1.451180e-005
4.804412e-001,-1.628138e-005,1.450936e-005
4.812353e-001,-1.560998e-005,1.450171e-005
4.820294e-001,-1.594568e-005,1.449936e-005
4.828235e-001,-1.292439e-005,1.449317e-005
4.836176e-001,-1.493858e-005,1.447128e-005
4.844118e-001,-1.728847e-005,1.446902e-005
4.852059e-001,-1.292439e-005,1.447274e-005
4.860000e-001,-1.158160e-005,1.445360e-005
4.867941e-001,-1.258869e-005,1.444267e-005
4.875882e-001,-1.107805e-005,1.444359e-005
4.883824e-001,-8.224612e-006,1.444631e-005
4.891765e-001,-7.217518e-006,1.443721e-005
4.899706e-001,-1.124590e-005,1.442256e-005
4.907647e-001,-1.242084e-005,1.440664e-005
4.915588e-001,-1.292439e-005,1.438669e-005
4.923529e-001,-1.359579e-005,1.436743e-005
4.931471e-001,-1.460288e-005,1.434368e-005
4.939412e-001,-1.628138e-005,1.433287e-005
4.947353e-001,-1.292439e-005,1.433407e-005
4.955294e-001,-9.567407e-006,1.432195e-005
4.963235e-001,-1.107805e-005,1.429209e-005
4.971176e-001,-9.903105e-006,1.425977e-005
4.979118e-001,-4.196231e-006,1.424111e-005
4.987059e-001,-5.539025e-006,1.423135e-005
4.995000e-001,-9.903105e-006,1.421977e-005
5.002941e-001,-9.903105e-006,1.420576e-005
5.010882e-001,-1.023880e-005,1.418641e-005
5.018824e-001,-9.903105e-006,1.416963e-005
5.026765e-001,-1.393149e-005,1.415777e-005
5.034706e-001,-1.292439e-005,1.416271e-005
5.042647e-001,-1.292439e-005,1.416811e-005
5.050588e-001,-1.225299e-005,1.416507e-005
5.058529e-001,-1.225299e-005,1.415685e-005
5.066471e-001,-1.628138e-005,1.416195e-005
5.074412e-001,-1.527428e-005,1.418145e-005
5.082353e-001,-1.695277e-005,1.419258e-005
5.090294e-001,-1.762417e-005,1.420357e-005
5.098235e-001,-1.393149e-005,1.421766e-005
5.106176e-001,-1.225299e-005,1.422069e-005
5.114118e-001,-1.527428e-005,1.420657e-005
5.122059e-001,-1.795987e-005,1.420301e-005
5.130000e-001,-1.728847e-005,1.422044e-005
5.137941e-001,-1.829557e-005,1.423111e-005
5.145882e-001,-1.560998e-005,1.425829e-005
5.153824e-001,-1.493858e-005,1.427008e-005
5.161765e-001,-1.225299e-005,1.427436e-005
5.169706e-001,-1.158160e-005,1.427049e-005
5.177647e-001,-1.493858e-005,1.427217e-005
5.185588e-001,-1.594568e-005,1.428649e-005
5.193529e-001,-1.644922e-005,1.428995e-005
5.201471e-001,-1.695277e-005,1.427564e-005
5.209412e-001,-1.829557e-005,1.427036e-005
5.217353e-001,-2.030976e-005,1.427813e-005
5.225294e-001,-1.560998e-005,1.429207e-005
5.233235e-001,-1.628138e-005,1.428907e-005
5.241176e-001,-1.493858e-005,1.429087e-005
5.249118e-001,-1.426719e-005,1.428620e-005
5.257059e-001,-1.493858e-005,1.429169e-005
5.265000e-001,-8.224612e-006,1.430635e-005
5.272941e-001,-5.539025e-006,1.429227e-005
5.280882e-001,-8.560311e-006,1.428074e-005
5.288824e-001,-9.567407e-006,1.427870e-005
5.296765e-001,-1.057450e-005,1.428074e-005
5.304706e-001,-6.881819e-006,1.428684e-005
5.312647e-001,-7.553216e-006,1.428948e-005
5.320588e-001,-7.553216e-006,1.428669e-005
5.328529e-001,-7.888914e-006,1.427809e-005
5.336471e-001,-1.091020e-005,1.425666e-005
5.344412e-001,-1.225299e-005,1.422975e-005
5.352353e-001,-1.493858e-005,1.420337e-005
5.360294e-001,-1.695277e-005,1.417901e-005
5.368235e-001,-1.661708e-005,1.415862e-005
5.376176e-001,-1.896696e-005,1.414921e-005
5.384118e-001,-1.980621e-005,1.415064e-005
5.392059e-001,-1.594568e-005,1.416735e-005
5.400000e-001,-1.443504e-005,1.416426e-005
5.407941e-001,-1.577783e-005,1.415276e-005
5.415882e-001,-1.896696e-005,1.416148e-005
5.423824e-001,-1.762417e-005,1.418410e-005
5.431765e-001,-1.426719e-005,1.420210e-005
5.439706e-001,-1.158160e-005,1.421465e-005
5.447647e-001,-1.309224e-005,1.422624e-005
5.455588e-001,-1.359579e-005,1.424012e-005
5.463529e-001,-1.091020e-005,1.424535e-005
5.471471e-001,-1.225299e-005,1.424094e-005
5.479412e-001,-1.359579e-005,1.423856e-005
5.487353e-001,-1.577783e-005,1.422958e-005
5.495294e-001,-1.728847e-005,1.423017e-005
5.503235e-001,-1.628138e-005,1.424443e-005
5.511176e-001,-1.628138e-005,1.425340e-005
5.519118e-001,-1.762417e-005,1.426623e-005
5.527059e-001,-1.795987e-005,1.428413e-005
5.535000e-001,-1.863127e-005,1.430146e-005
5.542941e-001,-1.963836e-005,1.432516e-005
5.550882e-001,-1.577783e-005,1.436164e-005
5.558824e-001,-1.191730e-005,1.438290e-005
5.566765e-001,-1.829557e-005,1.439051e-005
5.574706e-001,-1.963836e-005,1.442003e-005
5.582647e-001,-2.064546e-005,1.444013e-005
5.590588e-001,-1.628138e-005,1.446024e-005
5.598529e-001,-1.292439e-005,1.446024e-005
5.606471e-001,-1.258869e-005,1.446024e-005
5.614412e-001,-1.258869e-005,1.445734e-005
5.622353e-001,-9.567407e-006,1.444187e-005
5.630294e-001,-1.091020e-005,1.442951e-005
5.638235e-001,-1.628138e-005,1.442421e-005
5.646176e-001,-1.326009e-005,1.443205e-005
5.654118e-001,-1.309224e-005,1.442682e-005
5.662059e-001,-1.292439e-005,1.441402e-005
5.670000e-001,-1.292439e-005,1.440555e-005
5.677941e-001,-9.567407e-006,1.440650e-005
5.685882e-001,-9.567407e-006,1.440914e-005
5.693824e-001,-1.225299e-005,1.441017e-005
5.701765e-001,-1.426719e-005,1.440154e-005
5.709706e-001,-1.426719e-005,1.440154e-005
5.717647e-001,-1.091020e-005,1.439825e-005
5.725588e-001,-1.023880e-005,1.436424e-005
5.733529e-001,-1.191730e-005,1.432856e-005
5.741471e-001,-1.158160e-005,1.430435e-005
5.749412e-001,-1.158160e-005,1.428469e-005
5.757353e-001,-1.091020e-005,1.428290e-005
5.765294e-001,-1.091020e-005,1.426538e-005
5.773235e-001,-9.567407e-006,1.424398e-005
5.781176e-001,-9.735256e-006,1.423037e-005
5.789118e-001,-8.560311e-006,1.420880e-005
5.797059e-001,-9.567407e-006,1.416919e-005
5.805000e-001,-1.007095e-005,1.414967e-005
5.812941e-001,-1.023880e-005,1.411912e-005
5.820882e-001,-1.158160e-005,1.409177e-005
5.828824e-001,-1.258869e-005,1.408805e-005
5.836765e-001,-1.091020e-005,1.408295e-005
5.844706e-001,-1.628138e-005,1.406944e-005
5.852647e-001,-1.460288e-005,1.407641e-005
5.860588e-001,-1.426719e-005,1.408260e-005
5.868529e-001,-1.560998e-005,1.409666e-005
5.876471e-001,-1.527428e-005,1.410859e-005
5.884412e-001,-1.560998e-005,1.411507e-005
5.892353e-001,-1.560998e-005,1.412742e-005
5.900294e-001,-1.493858e-005,1.414146e-005
5.908235e-001,-1.493858e-005,1.414875e-005
5.916176e-001,-1.527428e-005,1.414875e-005
5.924118e-001,-1.560998e-005,1.415209e-005
5.932059e-001,-1.628138e-005,1.415820e-005
5.940000e-001,-1.628138e-005,1.417018e-005
5.947941e-001,-1.644922e-005,1.417018e-005
5.955882e-001,-1.560998e-005,1.416829e-005
5.963824e-001,-1.695277e-005,1.416588e-005
5.971765e-001,-1.695277e-005,1.416839e-005
5.979706e-001,-1.628138e-005,1.417940e-005
5.987647e-001,-2.030976e-005,1.419887e-005
5.995588e-001,-1.846342e-005,1.423482e-005
6.003529e-001,-1.930266e-005,1.425705e-005
6.011471e-001,-1.728847e-005,1.428451e-005
6.019412e-001,-1.628138e-005,1.430109e-005
6.027353e-001,-1.728847e-005,1.431566e-005
6.035294e-001,-1.997406e-005,1.432352e-005
6.043235e-001,-1.695277e-005,1.434523e-005
6.051176e-001,-1.628138e-005,1.434395e-005
6.059118e-001,-1.628138e-005,1.433622e-005
6.067059e-001,-1.728847e-005,1.434087e-005
6.075000e-001,-1.527428e-005,1.434928e-005
6.082941e-001,-1.174945e-005,1.435041e-005
6.090882e-001,-1.359579e-005,1.435409e-005
6.098824e-001,-1.426719e-005,1.435794e-005
6.106765e-001,-1.510643e-005,1.436199e-005
6.114706e-001,-1.426719e-005,1.437409e-005
6.122647e-001,-1.023880e-005,1.438649e-005
6.130588e-001,-1.460288e-005,1.438148e-005
6.138529e-001,-1.225299e-005,1.438754e-005
6.146471e-001,-1.191730e-005,1.439098e-005
6.154412e-001,-1.292439e-005,1.438821e-005
6.162353e-001,-1.158160e-005,1.437736e-005
6.170294e-001,-1.393149e-005,1.437559e-005
6.178235e-001,-9.903105e-006,1.437661e-005
6.186176e-001,-7.217518e-006,1.436275e-005
6.194118e-001,-6.881819e-006,1.434802e-005
6.202059e-001,-6.210422e-006,1.433276e-005
6.210000e-001,-1.158160e-005,1.431224e-005
6.217941e-001,-1.493858e-005,1.429259e-005
6.225882e-001,-1.091020e-005,1.428792e-005
6.233824e-001,-1.292439e-005,1.428535e-005
6.241765e-001,-1.628138e-005,1.428902e-005
6.249706e-001,-1.762417e-005,1.430183e-005
6.257647e-001,-1.795987e-005,1.432273e-005
6.265588e-001,-1.930266e-005,1.434001e-005
6.273529e-001,-2.064546e-005,1.436282e-005
6.281471e-001,-2.165255e-005,1.438955e-005
6.289412e-001,-1.426719e-005,1.442095e-005
6.297353e-001,-1.326009e-005,1.443711e-005
6.305294e-001,-1.594568e-005,1.444605e-005
6.313235e-001,-1.527428e-005,1.445057e-005
6.321176e-001,-1.191730e-005,1.443663e-005
6.329118e-001,-1.023880e-005,1.442305e-005
6.337059e-001,-8.896010e-006,1.441805e-005
6.345000e-001,-6.881819e-006,1.441110e-005
6.352941e-001,-7.888914e-006,1.440855e-005
6.360882e-001,-9.231709e-006,1.441204e-005
6.368824e-001,-9.567407e-006,1.441098e-005
6.376765e-001,-7.553216e-006,1.440874e-005
6.384706e-001,-1.091020e-005,1.439658e-005
6.392647e-001,-1.191730e-005,1.438723e-005
6.400588e-001,-1.023880e-005,1.437480e-005
6.408529e-001,-9.903105e-006,1.434654e-005
6.416471e-001,-9.903105e-006,1.431384e-005
6.424412e-001,-8.224612e-006,1.428470e-005
6.432353e-001,-9.567407e-006,1.426268e-005
6.440294e-001,-1.225299e-005,1.425226e-005
6.448235e-001,-1.359579e-005,1.424988e-005
6.456176e-001,-1.393149e-005,1.425555e-005
6.464118e-001,-1.695277e-005,1.426045e-005
6.472059e-001,-1.628138e-005,1.427389e-005
6.480000e-001,-1.560998e-005,1.428577e-005
6.487941e-001,-1.947051e-005,1.430764e-005
6.495882e-001,-1.896696e-005,1.434525e-005
6.503824e-001,-1.963836e-005,1.437352e-005
6.511765e-001,-1.762417e-005,1.439959e-005
6.519706e-001,-1.963836e-005,1.441349e-005
6.527647e-001,-2.030976e-005,1.443143e-005
6.535588e-001,-1.829557e-005,1.445653e-005
6.543529e-001,-1.628138e-005,1.446770e-005
6.551471e-001,-1.779202e-005,1.446524e-005
6.559412e-001,-1.695277e-005,1.446589e-005
6.567353e-001,-1.393149e-005,1.447405e-005
6.575294e-001,-1.426719e-005,1.447086e-005
6.583235e-001,-1.158160e-005,1.446814e-005
6.591176e-001,-9.567407e-006,1.446638e-005
6.599118e-001,-1.359579e-005,1.445405e-005
6.607059e-001,-1.963836e-005,1.444756e-005
6.615000e-001,-1.661708e-005,1.446321e-005
6.622941e-001,-1.493858e-005,1.446904e-005
6.630882e-001,-1.158160e-005,1.446442e-005
6.638824e-001,-1.007095e-005,1.445119e-005
6.646765e-001,-1.426719e-005,1.443315e-005
6.654706e-001,-1.762417e-005,1.443669e-005
6.662647e-001,-1.829557e-005,1.444954e-005
6.670588e-001,-1.527428e-005,1.445721e-005
6.678529e-001,-1.309224e-005,1.445942e-005
6.686471e-001,-1.426719e-005,1.444910e-005
6.694412e-001,-1.091020e-005,1.444694e-005
6.702353e-001,-1.225299e-005,1.444165e-005
6.710294e-001,-1.225299e-005,1.443359e-005
6.718235e-001,-1.393149e-005,1.441045e-005
6.726176e-001,-1.728847e-005,1.439071e-005
6.734118e-001,-1.795987e-005,1.439445e-005
6.742059e-001,-1.795987e-005,1.440318e-005
6.750000e-001,-1.527428e-005,1.440892e-005
6.757941e-001,-1.560998e-005,1.440541e-005
6.765882e-001,-1.426719e-005,1.440304e-005
6.773824e-001,-1.225299e-005,1.439563e-005
6.781765e-001,-1.057450e-005,1.436351e-005
6.789706e-001,-9.735256e-006,1.432387e-005
6.797647e-001,-8.560311e-006,1.429717e-005
6.805588e-001,-9.903105e-006,1.425858e-005
6.813529e-001,-1.023880e-005,1.422789e-005
6.821471e-001,-8.896010e-006,1.421116e-005
6.829412e-001,-9.735256e-006,1.420130e-005
6.837353e-001,-1.091020e-005,1.419120e-005
6.845294e-001,-1.225299e-005,1.418771e-005
6.853235e-001,-1.225299e-005,1.417356e-005
6.861176e-001,-1.326009e-005,1.415485e-005
6.869118e-001,-1.057450e-005,1.415064e-005
6.877059e-001,-1.091020e-005,1.414539e-005
6.885000e-001,-8.728161e-006,1.413999e-005
6.892941e-001,-8.224612e-006,1.412975e-005
6.900882e-001,-5.539025e-006,1.412312e-005
6.908824e-001,-6.881819e-006,1.411766e-005
6.916765e-001,-1.057450e-005,1.411766e-005
6.924706e-001,-1.091020e-005,1.412134e-005
6.932647e-001,-8.896010e-006,1.412584e-005
6.940588e-001,-1.158160e-005,1.412584e-005
6.948529e-001,-1.678492e-005,1.413613e-005
6.956471e-001,-1.762417e-005,1.415753e-005
6.964412e-001,-1.896696e-005,1.418215e-005
6.972353e-001,-1.997406e-005,1.421793e-005
6.980294e-001,-1.628138e-005,1.426025e-005
6.988235e-001,-1.644922e-005,1.428640e-005
6.996176e-001,-1.829557e-005,1.431389e-005
7.004118e-001,-1.644922e-005,1.434475e-005
7.012059e-001,-1.779202e-005,1.436726e-005
7.020000e-001,-1.426719e-005,1.438913e-005
7.027941e-001,-1.460288e-005,1.439317e-005
7.035882e-001,-1.225299e-005,1.439096e-005
7.043824e-001,-1.510643e-005,1.438060e-005
7.051765e-001,-1.376364e-005,1.438004e-005
7.059706e-001,-1.527428e-005,1.438203e-005
7.067647e-001,-2.098116e-005,1.437852e-005
7.075588e-001,-2.182040e-005,1.440677e-005
7.083529e-001,-1.963836e-005,1.444230e-005
7.091471e-001,-1.930266e-005,1.445909e-005
7.099412e-001,-1.896696e-005,1.447211e-005
7.107353e-001,-1.628138e-005,1.448371e-005
7.115294e-001,-1.493858e-005,1.448371e-005
7.123235e-001,-8.896010e-006,1.447910e-005
7.131176e-001,-9.063859e-006,1.445618e-005
7.139118e-001,-9.735256e-006,1.443952e-005
7.147059e-001,-8.224612e-006,1.443250e-005
7.155000e-001,-1.225299e-005,1.441306e-005
7.162941e-001,-8.560311e-006,1.438098e-005
7.170882e-001,-9.567407e-006,1.432959e-005
7.178824e-001,-1.225299e-005,1.428597e-005
7.186765e-001,-1.376364e-005,1.425040e-005
7.194706e-001,-1.963836e-005,1.422546e-005
7.202647e-001,-1.896696e-005,1.424583e-005
7.210588e-001,-1.292439e-005,1.425641e-005
7.218529e-001,-1.091020e-005,1.423487e-005
7.226471e-001,-1.292439e-005,1.422949e-005
7.234412e-001,-1.359579e-005,1.422950e-005
7.242353e-001,-1.409934e-005,1.422521e-005
7.250294e-001,-1.426719e-005,1.423065e-005
7.258235e-001,-1.292439e-005,1.423474e-005
7.266176e-001,-1.107805e-005,1.423275e-005
7.274118e-001,-1.225299e-005,1.421431e-005
7.282059e-001,-1.258869e-005,1.419362e-005
7.290000e-001,-1.091020e-005,1.418346e-005
7.297941e-001,-1.023880e-005,1.416706e-005
7.305882e-001,-1.023880e-005,1.414903e-005
7.313824e-001,-1.057450e-005,1.413340e-005
7.321765e-001,-1.091020e-005,1.411734e-005
7.329706e-001,-1.242084e-005,1.411193e-005
7.337647e-001,-1.695277e-005,1.410415e-005
7.345588e-001,-1.963836e-005,1.410285e-005
7.353529e-001,-1.930266e-005,1.412752e-005
7.361471e-001,-1.712062e-005,1.415437e-005
7.369412e-001,-1.493858e-005,1.416951e-005
7.377353e-001,-1.359579e-005,1.418079e-005
7.385294e-001,-1.275654e-005,1.419394e-005
7.393235e-001,-1.560998e-005,1.420635e-005
7.401176e-001,-1.443504e-005,1.421948e-005
7.409118e-001,-1.577783e-005,1.422554e-005
7.417059e-001,-1.628138e-005,1.423470e-005
7.425000e-001,-1.527428e-005,1.424368e-005
7.432941e-001,-1.493858e-005,1.424592e-005
7.440882e-001,-1.661708e-005,1.424123e-005
7.448824e-001,-1.359579e-005,1.425342e-005
7.456765e-001,-1.057450e-005,1.426384e-005
7.464706e-001,-1.359579e-005,1.426263e-005
7.472647e-001,-1.426719e-005,1.427231e-005
7.480588e-001,-1.762417e-005,1.429304e-005
7.488529e-001,-1.896696e-005,1.432420e-005
7.496471e-001,-1.762417e-005,1.435326e-005
7.504412e-001,-1.963836e-005,1.437681e-005
7.512353e-001,-1.795987e-005,1.440788e-005
7.520294e-001,-1.896696e-005,1.443267e-005
7.528235e-001,-2.064546e-005,1.445094e-005
7.536176e-001,-1.963836e-005,1.447947e-005
7.544118e-001,-1.695277e-005,1.450350e-005
7.552059e-001,-1.393149e-005,1.451856e-005
7.560000e-001,-1.158160e-005,1.452338e-005
7.567941e-001,-1.661708e-005,1.450901e-005
7.575882e-001,-1.493858e-005,1.451371e-005
7.583824e-001,-1.661708e-005,1.450666e-005
7.591765e-001,-1.829557e-005,1.450288e-005
7.599706e-001,-1.728847e-005,1.451831e-005
7.607647e-001,-1.242084e-005,1.453462e-005
7.615588e-001,-1.292439e-005,1.452596e-005
7.623529e-001,-1.359579e-005,1.450890e-005
7.631471e-001,-1.040665e-005,1.449638e-005
7.639412e-001,-1.023880e-005,1.447148e-005
7.647353e-001,-1.124590e-005,1.445620e-005
7.655294e-001,-1.426719e-005,1.444554e-005
7.663235e-001,-1.426719e-005,1.445143e-005
7.671176e-001,-1.594568e-005,1.445908e-005
7.679118e-001,-1.510643e-005,1.446250e-005
7.687059e-001,-1.393149e-005,1.445963e-005
7.695000e-001,-1.493858e-005,1.445121e-005
7.702941e-001,-1.326009e-005,1.444413e-005
7.710882e-001,-1.359579e-005,1.442660e-005
7.718824e-001,-1.057450e-005,1.440145e-005
7.726765e-001,-1.091020e-005,1.438686e-005
7.734706e-001,-1.359579e-005,1.437069e-005
7.742647e-001,-1.359579e-005,1.436644e-005
7.750588e-001,-1.359579e-005,1.436437e-005
7.758529e-001,-1.594568e-005,1.436012e-005
7.766471e-001,-1.628138e-005,1.438080e-005
7.774412e-001,-1.393149e-005,1.440673e-005
7.782353e-001,-1.225299e-005,1.442008e-005
7.790294e-001,-1.426719e-005,1.442655e-005
7.798235e-001,-1.560998e-005,1.443667e-005
7.806176e-001,-9.735256e-006,1.445831e-005
7.814118e-001,-1.225299e-005,1.446246e-005
7.822059e-001,-1.762417e-005,1.447271e-005
7.830000e-001,-1.695277e-005,1.450001e-005
7.837941e-001,-1.460288e-005,1.451849e-005
7.845882e-001,-1.292439e-005,1.452541e-005
7.853824e-001,-1.023880e-005,1.451925e-005
7.861765e-001,-1.393149e-005,1.449922e-005
7.869706e-001,-1.426719e-005,1.449020e-005
7.877647e-001,-1.628138e-005,1.447303e-005
7.885588e-001,-1.628138e-005,1.445903e-005
7.893529e-001,-1.191730e-005,1.446022e-005
7.901471e-001,-9.567407e-006,1.445291e-005
7.909412e-001,-9.567407e-006,1.443556e-005
7.917353e-001,-8.896010e-006,1.440594e-005
7.925294e-001,-1.359579e-005,1.438033e-005
7.933235e-001,-1.728847e-005,1.437826e-005
7.941176e-001,-1.560998e-005,1.439650e-005
7.949118e-001,-1.426719e-005,1.440449e-005
7.957059e-001,-1.225299e-005,1.440656e-005
7.965000e-001,-1.091020e-005,1.440999e-005
7.972941e-001,-1.091020e-005,1.440656e-005
7.980882e-001,-8.224612e-006,1.439928e-005
7.988824e-001,-7.049668e-006,1.437922e-005
7.996765e-001,-8.560311e-006,1.435159e-005
8.004706e-001,-1.258869e-005,1.433030e-005
8.012647e-001,-1.225299e-005,1.431845e-005
8.020588e-001,-1.292439e-005,1.430059e-005
8.028529e-001,-1.594568e-005,1.428326e-005
8.036471e-001,-1.225299e-005,1.427290e-005
8.044412e-001,-1.091020e-005,1.424660e-005
8.052353e-001,-1.359579e-005,1.423208e-005
8.060294e-001,-9.903105e-006,1.423687e-005
8.068235e-001,-1.191730e-005,1.421037e-005
8.076176e-001,-1.493858e-005,1.418305e-005
8.084118e-001,-1.695277e-005,1.416023e-005
8.092059e-001,-2.131685e-005,1.416274e-005
8.100000e-001,-2.366674e-005,1.419501e-005
8.107941e-001,-2.333104e-005,1.423999e-005
8.115882e-001,-2.299535e-005,1.428307e-005
8.123824e-001,-2.232395e-005,1.433174e-005
8.131765e-001,-2.098116e-005,1.437382e-005
8.139706e-001,-1.695277e-005,1.439321e-005
8.147647e-001,-1.158160e-005,1.440555e-005
8.155588e-001,-1.158160e-005,1.440143e-005
8.163529e-001,-1.292439e-005,1.439779e-005
8.171471e-001,-1.225299e-005,1.439779e-005
8.179412e-001,-1.225299e-005,1.440427e-005
8.187353e-001,-1.191730e-005,1.441075e-005
8.195294e-001,-1.091020e-005,1.440985e-005
8.203235e-001,-1.124590e-005,1.440051e-005
8.211176e-001,-1.124590e-005,1.439198e-005
8.219118e-001,-9.567407e-006,1.439280e-005
8.227059e-001,-6.881819e-006,1.439133e-005
8.235000e-001,-8.392462e-006,1.438085e-005
8.242941e-001,-6.210422e-006,1.437380e-005
8.250882e-001,-8.560311e-006,1.436321e-005
8.258824e-001,-1.023880e-005,1.435813e-005
8.266765e-001,-8.896010e-006,1.435656e-005
8.274706e-001,-1.225299e-005,1.435519e-005
8.282647e-001,-1.174945e-005,1.436132e-005
8.290588e-001,-1.426719e-005,1.436850e-005
8.298529e-001,-1.577783e-005,1.438091e-005
8.306471e-001,-1.695277e-005,1.439724e-005
8.314412e-001,-1.695277e-005,1.441742e-005
8.322353e-001,-1.628138e-005,1.443433e-005
8.330294e-001,-1.628138e-005,1.444609e-005
8.338235e-001,-1.762417e-005,1.446218e-005
8.346176e-001,-1.426719e-005,1.446719e-005
8.354118e-001,-1.695277e-005,1.446613e-005
8.362059e-001,-1.795987e-005,1.447535e-005
8.370000e-001,-1.644922e-005,1.448403e-005
8.377941e-001,-1.628138e-005,1.448812e-005
8.385882e-001,-1.359579e-005,1.449048e-005
8.393824e-001,-1.493858e-005,1.448401e-005
8.401765e-001,-1.594568e-005,1.448401e-005
8.409706e-001,-1.493858e-005,1.448743e-005
8.417647e-001,-1.443504e-005,1.448631e-005
8.425588e-001,-1.359579e-005,1.448243e-005
8.433529e-001,-1.158160e-005,1.447361e-005
8.441471e-001,-1.225299e-005,1.445920e-005
8.449412e-001,-9.567407e-006,1.444593e-005
8.457353e-001,-1.107805e-005,1.442915e-005
8.465294e-001,-1.158160e-005,1.441096e-005
8.473235e-001,-1.326009e-005,1.439402e-005
8.481176e-001,-1.023880e-005,1.438414e-005
8.489118e-001,-1.493858e-005,1.435004e-005
8.497059e-001,-1.980621e-005,1.433697e-005
8.505000e-001,-1.762417e-005,1.433916e-005
8.512941e-001,-1.393149e-005,1.434046e-005
8.520882e-001,-1.560998e-005,1.433257e-005
8.528824e-001,-1.426719e-005,1.432644e-005
8.536765e-001,-1.376364e-005,1.430470e-005
8.544706e-001,-1.443504e-005,1.429379e-005
8.552647e-001,-1.661708e-005,1.428747e-005
8.560588e-001,-1.997406e-005,1.428870e-005
8.568529e-001,-1.896696e-005,1.429985e-005
8.576471e-001,-1.695277e-005,1.431393e-005
8.584412e-001,-1.359579e-005,1.433053e-005
8.592353e-001,-1.409934e-005,1.433053e-005
8.600294e-001,-1.628138e-005,1.433000e-005
8.608235e-001,-1.359579e-005,1.433410e-005
8.616176e-001,-1.124590e-005,1.433202e-005
8.624118e-001,-1.292439e-005,1.433442e-005
8.632059e-001,-1.158160e-005,1.432929e-005
8.640000e-001,-1.023880e-005,1.432751e-005
8.647941e-001,-1.174945e-005,1.432338e-005
8.655882e-001,-1.158160e-005,1.432015e-005
8.663824e-001,-9.903105e-006,1.432015e-005
8.671765e-001,-1.107805e-005,1.430947e-005
8.679706e-001,-1.191730e-005,1.431222e-005
8.687647e-001,-1.309224e-005,1.432222e-005
8.695588e-001,-1.158160e-005,1.433600e-005
8.703529e-001,-8.896010e-006,1.434661e-005
8.711471e-001,-1.426719e-005,1.434051e-005
8.719412e-001,-1.560998e-005,1.433833e-005
8.727353e-001,-1.628138e-005,1.435216e-005
8.735294e-001,-2.098116e-005,1.436304e-005
8.743235e-001,-1.762417e-005,1.438244e-005
8.751176e-001,-1.527428e-005,1.438244e-005
8.759118e-001,-1.712062e-005,1.437255e-005
8.767059e-001,-1.460288e-005,1.436375e-005
8.775000e-001,-1.493858e-005,1.434012e-005
8.782941e-001,-1.326009e-005,1.431281e-005
8.790882e-001,-1.158160e-005,1.430973e-005
8.798824e-001,-1.158160e-005,1.430508e-005
8.806765e-001,-1.225299e-005,1.429171e-005
8.814706e-001,-1.359579e-005,1.428244e-005
8.822647e-001,-1.292439e-005,1.428721e-005
8.830588e-001,-1.695277e-005,1.429414e-005
8.838529e-001,-1.493858e-005,1.431732e-005
8.846471e-001,-1.393149e-005,1.433686e-005
8.854412e-001,-1.426719e-005,1.435150e-005
8.862353e-001,-1.560998e-005,1.436462e-005
8.870294e-001,-1.594568e-005,1.438148e-005
8.878235e-001,-1.426719e-005,1.440330e-005
8.886176e-001,-1.493858e-005,1.441264e-005
8.894118e-001,-1.762417e-005,1.442160e-005
8.902059e-001,-1.661708e-005,1.444430e-005
8.910000e-001,-1.728847e-005,1.446392e-005
8.917941e-001,-1.930266e-005,1.448601e-005
8.925882e-001,-1.577783e-005,1.451949e-005
8.933824e-001,-1.560998e-005,1.453674e-005
8.941765e-001,-1.493858e-005,1.454699e-005
8.949706e-001,-1.393149e-005,1.455118e-005
8.957647e-001,-1.493858e-005,1.455118e-005
8.965588e-001,-1.628138e-005,1.454415e-005
8.973529e-001,-1.628138e-005,1.454415e-005
8.981471e-001,-1.628138e-005,1.454649e-005
8.989412e-001,-1.460288e-005,1.453401e-005
8.997353e-001,-1.393149e-005,1.451795e-005
9.005294e-001,-1.560998e-005,1.449692e-005
9.013235e-001,-1.661708e-005,1.448956e-005
9.021176e-001,-1.426719e-005,1.447752e-005
9.029118e-001,-1.560998e-005,1.445452e-005
9.037059e-001,-1.762417e-005,1.444449e-005
9.045000e-001,-1.560998e-005,1.444951e-005
9.052941e-001,-1.292439e-005,1.444147e-005
9.060882e-001,-1.258869e-005,1.442819e-005
9.068824e-001,-1.326009e-005,1.442426e-005
9.076765e-001,-1.426719e-005,1.442120e-005
9.084706e-001,-1.695277e-005,1.442887e-005
9.092647e-001,-1.795987e-005,1.445046e-005
9.100588e-001,-1.527428e-005,1.446563e-005
9.108529e-001,-1.091020e-005,1.444885e-005
9.116471e-001,-9.567407e-006,1.443153e-005
9.124412e-001,-8.560311e-006,1.441700e-005
9.132353e-001,-7.553216e-006,1.441027e-005
9.140294e-001,-5.203327e-006,1.440537e-005
9.148235e-001,-4.196231e-006,1.438585e-005
9.156176e-001,-4.867628e-006,1.435338e-005
9.164118e-001,-5.874723e-006,1.431883e-005
9.172059e-001,-7.217518e-006,1.429671e-005
9.180000e-001,-8.896010e-006,1.428341e-005
9.187941e-001,-9.567407e-006,1.426954e-005
9.195882e-001,-1.007095e-005,1.426647e-005
9.203824e-001,-1.225299e-005,1.426103e-005
9.211765e-001,-1.393149e-005,1.426103e-005
9.219706e-001,-1.359579e-005,1.426103e-005
9.227647e-001,-1.359579e-005,1.424829e-005
9.235588e-001,-1.460288e-005,1.423289e-005
9.243529e-001,-1.628138e-005,1.422065e-005
9.251471e-001,-1.158160e-005,1.422421e-005
9.259412e-001,-1.275654e-005,1.421194e-005
9.267353e-001,-1.762417e-005,1.420737e-005
9.275294e-001,-1.628138e-005,1.422534e-005
9.283235e-001,-1.292439e-005,1.424249e-005
9.291176e-001,-1.493858e-005,1.425057e-005
9.299118e-001,-1.930266e-005,1.426731e-005
9.307059e-001,-1.728847e-005,1.429791e-005
9.315000e-001,-1.695277e-005,1.431951e-005
9.322941e-001,-1.762417e-005,1.434265e-005
9.330882e-001,-1.896696e-005,1.436659e-005
9.338824e-001,-1.560998e-005,1.439325e-005
9.346765e-001,-1.225299e-005,1.440359e-005
9.354706e-001,-1.560998e-005,1.440359e-005
9.362647e-001,-1.359579e-005,1.441109e-005
9.370588e-001,-1.225299e-005,1.441915e-005
9.378529e-001,-1.560998e-005,1.442259e-005
9.386471e-001,-1.560998e-005,1.444107e-005
9.394412e-001,-1.594568e-005,1.446046e-005
9.402353e-001,-1.896696e-005,1.448506e-005
9.410294e-001,-1.896696e-005,1.451937e-005
9.418235e-001,-2.215610e-005,1.454653e-005
9.426176e-001,-2.299535e-005,1.458718e-005
9.434118e-001,-2.232395e-005,1.463618e-005
9.442059e-001,-2.182040e-005,1.467575e-005
9.450000e-001,-1.795987e-005,1.469683e-005
9.457941e-001,-1.560998e-005,1.469813e-005
9.465882e-001,-1.527428e-005,1.468554e-005
9.473824e-001,-1.158160e-005,1.466757e-005
9.481765e-001,-1.091020e-005,1.465335e-005
9.489706e-001,-4.867628e-006,1.463687e-005
9.497647e-001,-9.231709e-006,1.460299e-005
9.505588e-001,-7.888914e-006,1.458277e-005
9.513529e-001,-8.896010e-006,1.455497e-005
9.521471e-001,-1.023880e-005,1.454135e-005
9.529412e-001,-1.057450e-005,1.452948e-005
9.537353e-001,-7.888914e-006,1.452528e-005
9.545294e-001,-8.896010e-006,1.450707e-005
9.553235e-001,-8.392462e-006,1.449496e-005
9.561176e-001,-1.225299e-005,1.447706e-005
9.569118e-001,-1.644922e-005,1.444512e-005
9.577059e-001,-1.762417e-005,1.442244e-005
9.585000e-001,-1.560998e-005,1.441415e-005
9.592941e-001,-1.258869e-005,1.439990e-005
9.600882e-001,-1.292439e-005,1.437763e-005
9.608824e-001,-1.493858e-005,1.436677e-005
9.616765e-001,-1.493858e-005,1.436677e-005
9.624706e-001,-1.628138e-005,1.438272e-005
9.632647e-001,-1.594568e-005,1.440296e-005
9.640588e-001,-1.661708e-005,1.442058e-005
9.648529e-001,-1.896696e-005,1.444358e-005
9.656471e-001,-1.661708e-005,1.446667e-005
9.664412e-001,-9.903105e-006,1.448899e-005
9.672353e-001,-1.040665e-005,1.448970e-005
9.680294e-001,-1.107805e-005,1.448510e-005
9.688235e-001,-1.359579e-005,1.447777e-005
9.696176e-001,-1.426719e-005,1.445567e-005
9.704118e-001,-1.510643e-005,1.443845e-005
9.712059e-001,-1.829557e-005,1.444519e-005
9.720000e-001,-2.098116e-005,1.446895e-005
9.727941e-001,-1.359579e-005,1.449898e-005
9.735882e-001,-1.292439e-005,1.449898e-005
9.743824e-001,-1.493858e-005,1.449549e-005
9.751765e-001,-1.359579e-005,1.449765e-005
9.759706e-001,-1.393149e-005,1.449960e-005
9.767647e-001,-8.896010e-006,1.450744e-005
9.775588e-001,-1.091020e-005,1.449964e-005
9.783529e-001,-1.460288e-005,1.449531e-005
9.791471e-001,-1.963836e-005,1.450566e-005
9.799412e-001,-1.628138e-005,1.453645e-005
9.807353e-001,-1.896696e-005,1.455400e-005
9.815294e-001,-1.829557e-005,1.458110e-005
9.823235e-001,-1.359579e-005,1.460463e-005
9.831176e-001,-1.896696e-005,1.460797e-005
9.839118e-001,-1.728847e-005,1.461585e-005
9.847059e-001,-1.359579e-005,1.460639e-005
9.855000e-001,-1.258869e-005,1.458591e-005
9.862941e-001,-1.309224e-005,1.457120e-005
9.870882e-001,-1.023880e-005,1.456555e-005
9.878824e-001,-9.567407e-006,1.455680e-005
9.886765e-001,-1.158160e-005,1.454901e-005
9.894706e-001,-1.141375e-005,1.453701e-005
9.902647e-001,-1.359579e-005,1.452846e-005
9.910588e-001,-1.510643e-005,1.452143e-005
9.918529e-001,-1.426719e-005,1.451739e-005
9.926471e-001,-8.896010e-006,1.451412e-005
9.934412e-001,-6.210422e-006,1.449831e-005
9.942353e-001,-1.023880e-005,1.447220e-005
9.950294e-001,-1.258869e-005,1.446339e-005
9.958235e-001,-1.158160e-005,1.446853e-005
9.966176e-001,-8.560311e-006,1.446295e-005
9.974118e-001,-7.049668e-006,1.444860e-005
9.982059e-001,-1.023880e-005,1.441981e-005
9.990000e-001,-1.292439e-005,1.439164e-005
9.997941e-001,-1.091020e-005,1.437574e-005
1.000588e+000,-1.225299e-005,1.434618e-005
1.001382e+000,-1.560998e-005,1.432703e-005
1.002176e+000,-1.695277e-005,1.431412e-005
1.002971e+000,-1.762417e-005,1.429867e-005
1.003765e+000,-1.292439e-005,1.429031e-005
1.004559e+000,-1.493858e-005,1.427689e-005
1.005353e+000,-1.661708e-005,1.428013e-005
1.006147e+000,-1.829557e-005,1.429596e-005
1.006941e+000,-1.493858e-005,1.430248e-005
1.007735e+000,-1.376364e-005,1.430248e-005
1.008529e+000,-1.762417e-005,1.429283e-005
1.009324e+000,-2.047761e-005,1.429014e-005
1.010118e+000,-1.896696e-005,1.430355e-005
1.010912e+000,-1.762417e-005,1.432641e-005
1.011706e+000,-1.560998e-005,1.434236e-005
1.012500e+000,-1.493858e-005,1.434889e-005
1.013294e+000,-1.846342e-005,1.436163e-005
1.014088e+000,-1.896696e-005,1.438778e-005
1.014882e+000,-1.762417e-005,1.441357e-005
1.015676e+000,-1.577783e-005,1.442540e-005
1.016471e+000,-1.376364e-005,1.443041e-005
1.017265e+000,-1.393149e-005,1.442325e-005
1.018059e+000,-1.057450e-005,1.441948e-005
1.018853e+000,-8.560311e-006,1.441040e-005
1.019647e+000,-9.903105e-006,1.439382e-005
1.020441e+000,-1.191730e-005,1.438522e-005
1.021235e+000,-1.057450e-005,1.438048e-005
1.022029e+000,-1.023880e-005,1.438048e-005
1.022824e+000,-1.292439e-005,1.437891e-005
1.023618e+000,-1.158160e-005,1.437693e-005
1.024412e+000,-1.292439e-005,1.437132e-005
1.025206e+000,-1.158160e-005,1.436934e-005
1.026000e+000,-1.124590e-005,1.435602e-005
1.026794e+000,-1.292439e-005,1.434064e-005
1.027588e+000,-1.493858e-005,1.433764e-005
1.028382e+000,-1.527428e-005,1.434575e-005
1.029176e+000,-1.628138e-005,1.434905e-005
1.029971e+000,-1.762417e-005,1.435142e-005
1.030765e+000,-1.963836e-005,1.437535e-005
1.031559e+000,-1.963836e-005,1.440142e-005
1.032353e+000,-1.913481e-005,1.440971e-005
1.033147e+000,-1.560998e-005,1.441841e-005
1.033941e+000,-1.292439e-005,1.442177e-005
1.034735e+000,-1.594568e-005,1.442177e-005
1.035529e+000,-1.577783e-005,1.443826e-005
1.036324e+000,-1.560998e-005,1.444431e-005
1.037118e+000,-1.594568e-005,1.444873e-005
1.037912e+000,-1.426719e-005,1.444754e-005
1.038706e+000,-1.191730e-005,1.444076e-005
1.039500e+000,-9.567407e-006,1.444076e-005
1.040294e+000,-1.124590e-005,1.444076e-005
1.041088e+000,-1.023880e-005,1.444461e-005
1.041882e+000,-9.231709e-006,1.444744e-005
1.042676e+000,-1.141375e-005,1.443646e-005
1.043471e+000,-1.225299e-005,1.441785e-005
1.044265e+000,-1.426719e-005,1.440751e-005
1.045059e+000,-1.829557e-005,1.440751e-005
1.045853e+000,-1.661708e-005,1.442790e-005
1.046647e+000,-1.493858e-005,1.444523e-005
1.047441e+000,-1.292439e-005,1.445670e-005
1.048235e+000,-1.594568e-005,1.446764e-005
1.049029e+000,-1.292439e-005,1.449014e-005
1.049824e+000,-1.258869e-005,1.450044e-005
1.050618e+000,-1.359579e-005,1.450044e-005
1.051412e+000,-1.158160e-005,1.450425e-005
1.052206e+000,-1.091020e-005,1.450064e-005
1.053000e+000,-1.091020e-005,1.448578e-005
1.053794e+000,-1.225299e-005,1.448236e-005
1.054588e+000,-1.023880e-005,1.448578e-005
1.055382e+000,-9.231709e-006,1.447698e-005
1.056176e+000,-8.224612e-006,1.447557e-005
1.056971e+000,-5.539025e-006,1.446739e-005
1.057765e+000,-1.678492e-007,1.444619e-005
1.058559e+000,-2.182040e-006,1.441448e-005
1.059353e+000,-8.224612e-006,1.436472e-005
1.060147e+000,-1.091020e-005,1.431002e-005
1.060941e+000,-1.023880e-005,1.426262e-005
1.061735e+000,-1.443504e-005,1.421521e-005
1.062529e+000,-1.628138e-005,1.418269e-005
1.063324e+000,-2.030976e-005,1.416301e-005
1.064118e+000,-1.963836e-005,1.417707e-005
1.064912e+000,-2.165255e-005,1.420529e-005
1.065706e+000,-2.400244e-005,1.424276e-005
1.066500e+000,-2.165255e-005,1.428842e-005
1.067294e+000,-1.795987e-005,1.432390e-005
1.068088e+000,-1.527428e-005,1.434305e-005
1.068882e+000,-1.493858e-005,1.435318e-005
1.069676e+000,-1.158160e-005,1.436473e-005
1.070471e+000,-1.510643e-005,1.436558e-005
1.071265e+000,-1.426719e-005,1.437685e-005
1.072059e+000,-1.158160e-005,1.438925e-005
1.072853e+000,-1.460288e-005,1.439885e-005
1.073647e+000,-1.695277e-005,1.441464e-005
1.074441e+000,-1.493858e-005,1.444210e-005
1.075235e+000,-1.426719e-005,1.445861e-005
1.076029e+000,-1.493858e-005,1.446948e-005
1.076824e+000,-1.577783e-005,1.448532e-005
1.077618e+000,-1.628138e-005,1.449618e-005
1.078412e+000,-1.443504e-005,1.451013e-005
1.079206e+000,-1.359579e-005,1.451066e-005
1.080000e+000,-1.544213e-005,1.450362e-005
1.080794e+000,-1.560998e-005,1.449825e-005
1.081588e+000,-1.628138e-005,1.449344e-005
1.082382e+000,-1.695277e-005,1.449344e-005
1.083176e+000,-1.628138e-005,1.449589e-005
1.083971e+000,-1.359579e-005,1.449089e-005
1.084765e+000,-1.292439e-005,1.448884e-005
1.085559e+000,-1.661708e-005,1.447560e-005
1.086353e+000,-1.628138e-005,1.447049e-005
1.087147e+000,-1.661708e-005,1.446989e-005
1.087941e+000,-1.560998e-005,1.447110e-005
1.088735e+000,-1.527428e-005,1.447758e-005
1.089529e+000,-1.460288e-005,1.447869e-005
1.090324e+000,-1.426719e-005,1.447418e-005
1.091118e+000,-1.426719e-005,1.447202e-005
1.091912e+000,-1.393149e-005,1.447149e-005
1.092706e+000,-1.258869e-005,1.447251e-005
1.093500e+000,-1.007095e-005,1.447519e-005
1.094294e+000,-9.231709e-006,1.446983e-005
1.095088e+000,-1.292439e-005,1.446913e-005
1.095882e+000,-9.567407e-006,1.447401e-005
1.096676e+000,-1.091020e-005,1.446932e-005
1.097471e+000,-8.560311e-006,1.446307e-005
1.098265e+000,-8.896010e-006,1.445960e-005
1.099059e+000,-1.091020e-005,1.444373e-005
1.099853e+000,-1.493858e-005,1.441357e-005
1.100647e+000,-1.493858e-005,1.440391e-005
1.101441e+000,-1.091020e-005,1.440712e-005
1.102235e+000,-1.493858e-005,1.439334e-005
1.103029e+000,-1.930266e-005,1.439551e-005
1.103824e+000,-2.081331e-005,1.441575e-005
1.104618e+000,-1.728847e-005,1.444056e-005
1.105412e+000,-1.963836e-005,1.444307e-005
1.106206e+000,-1.762417e-005,1.444161e-005
1.107000e+000,-1.863127e-005,1.443619e-005
1.107794e+000,-2.131685e-005,1.444278e-005
1.108588e+000,-2.098116e-005,1.447247e-005
1.109382e+000,-1.628138e-005,1.449900e-005
1.110176e+000,-1.292439e-005,1.449900e-005
1.110971e+000,-1.124590e-005,1.449705e-005
1.111765e+000,-9.903105e-006,1.449705e-005
1.112559e+000,-1.292439e-005,1.448947e-005
1.113353e+000,-1.359579e-005,1.449309e-005
1.114147e+000,-1.393149e-005,1.450188e-005
1.114941e+000,-1.560998e-005,1.450803e-005
1.115735e+000,-1.124590e-005,1.452004e-005
1.116529e+000,-9.567407e-006,1.452316e-005
1.117324e+000,-1.258869e-005,1.451974e-005
1.118118e+000,-1.057450e-005,1.452154e-005
1.118912e+000,-6.881819e-006,1.451501e-005
1.119706e+000,-6.378271e-006,1.450549e-005
1.120500e+000,-8.224612e-006,1.450126e-005
1.121294e+000,-1.091020e-005,1.448633e-005
1.122088e+000,-1.393149e-005,1.447263e-005
1.122882e+000,-1.191730e-005,1.446481e-005
1.123676e+000,-1.225299e-005,1.443195e-005
1.124471e+000,-1.628138e-005,1.441423e-005
1.125265e+000,-1.326009e-005,1.441774e-005
1.126059e+000,-8.896010e-006,1.440478e-005
1.126853e+000,-9.063859e-006,1.438995e-005
1.127647e+000,-1.141375e-005,1.437434e-005
1.128441e+000,-1.023880e-005,1.436929e-005
1.129235e+000,-1.225299e-005,1.436604e-005
1.130029e+000,-1.493858e-005,1.436782e-005
1.130824e+000,-1.560998e-005,1.437591e-005
1.131618e+000,-1.829557e-005,1.438242e-005
1.132412e+000,-1.460288e-005,1.440098e-005
1.133206e+000,-1.023880e-005,1.439277e-005
1.134000e+000,-1.359579e-005,1.437968e-005
1.134794e+000,-1.258869e-005,1.437865e-005
1.135588e+000,-1.292439e-005,1.437366e-005
1.136382e+000,-1.628138e-005,1.436517e-005
1.137176e+000,-1.728847e-005,1.436637e-005
1.137971e+000,-1.863127e-005,1.437693e-005
1.138765e+000,-1.829557e-005,1.439065e-005
1.139559e+000,-1.896696e-005,1.439332e-005
1.140353e+000,-2.198825e-005,1.440257e-005
1.141147e+000,-2.064546e-005,1.442296e-005
1.141941e+000,-1.728847e-005,1.442889e-005
1.142735e+000,-1.359579e-005,1.443440e-005
1.143529e+000,-1.040665e-005,1.442791e-005
1.144324e+000,-1.292439e-005,1.441522e-005
1.145118e+000,-1.762417e-005,1.441224e-005
1.145912e+000,-1.795987e-005,1.442189e-005
1.146706e+000,-1.762417e-005,1.442824e-005
1.147500e+000,-1.158160e-005,1.443326e-005
1.148294e+000,-1.023880e-005,1.441881e-005
1.149088e+000,-9.567407e-006,1.440683e-005
1.149882e+000,-1.309224e-005,1.439549e-005
1.150676e+000,-1.560998e-005,1.438750e-005
1.151471e+000,-1.376364e-005,1.438390e-005
1.152265e+000,-1.359579e-005,1.438234e-005
1.153059e+000,-1.628138e-005,1.437583e-005
1.153853e+000,-1.443504e-005,1.437078e-005
1.154647e+000,-9.903105e-006,1.436687e-005
1.155441e+000,-1.158160e-005,1.435922e-005
1.156235e+000,-1.158160e-005,1.435652e-005
1.157029e+000,-9.231709e-006,1.435190e-005
1.157824e+000,-7.049668e-006,1.433877e-005
1.158618e+000,-7.217518e-006,1.431234e-005
1.159412e+000,-9.567407e-006,1.428222e-005
1.160206e+000,-1.057450e-005,1.426641e-005
1.161000e+000,-1.292439e-005,1.426560e-005
1.161794e+000,-1.359579e-005,1.427403e-005
1.162588e+000,-1.493858e-005,1.428647e-005
1.163382e+000,-1.560998e-005,1.430497e-005
1.164176e+000,-1.594568e-005,1.432906e-005
1.164971e+000,-1.493858e-005,1.435534e-005
1.165765e+000,-1.762417e-005,1.437744e-005
1.166559e+000,-1.829557e-005,1.440799e-005
1.167353e+000,-1.829557e-005,1.443919e-005
1.168147e+000,-1.846342e-005,1.446735e-005
1.168941e+000,-1.896696e-005,1.449477e-005
1.169735e+000,-1.762417e-005,1.452312e-005
1.170529e+000,-1.527428e-005,1.454071e-005
1.171324e+000,-1.443504e-005,1.454500e-005
1.172118e+000,-1.225299e-005,1.454758e-005
1.172912e+000,-9.567407e-006,1.454378e-005
1.173706e+000,-1.040665e-005,1.453044e-005
1.174500e+000,-1.158160e-005,1.451325e-005
1.175294e+000,-1.225299e-005,1.451325e-005
1.176088e+000,-1.628138e-005,1.451187e-005
1.176882e+000,-1.695277e-005,1.450688e-005
1.177676e+000,-1.695277e-005,1.450932e-005
1.178471e+000,-1.426719e-005,1.452253e-005
1.179265e+000,-1.426719e-005,1.452038e-005
1.180059e+000,-1.695277e-005,1.450183e-005
1.180853e+000,-1.124590e-005,1.450057e-005
1.181647e+000,-1.560998e-005,1.448288e-005
1.182441e+000,-2.064546e-005,1.447552e-005
1.183235e+000,-1.762417e-005,1.448283e-005
1.184029e+000,-1.762417e-005,1.449019e-005
1.184824e+000,-1.560998e-005,1.450782e-005
1.185618e+000,-1.544213e-005,1.450782e-005
1.186412e+000,-1.829557e-005,1.451370e-005
1.187206e+000,-1.594568e-005,1.453394e-005
1.188000e+000,-1.493858e-005,1.453510e-005
1.188794e+000,-1.359579e-005,1.453285e-005
1.189588e+000,-1.225299e-005,1.452524e-005
1.190382e+000,-1.628138e-005,1.450224e-005
1.191176e+000,-1.628138e-005,1.449185e-005
1.191971e+000,-1.426719e-005,1.446701e-005
1.192765e+000,-1.292439e-005,1.443117e-005
1.193559e+000,-1.091020e-005,1.439457e-005
1.194353e+000,-1.124590e-005,1.435501e-005
1.195147e+000,-1.158160e-005,1.433324e-005
1.195941e+000,-1.158160e-005,1.432107e-005
1.196735e+000,-1.359579e-005,1.431004e-005
1.197529e+000,-1.460288e-005,1.431568e-005
1.198324e+000,-1.443504e-005,1.432615e-005
1.199118e+000,-1.359579e-005,1.434667e-005
1.199912e+000,-1.359579e-005,1.435772e-005
1.200706e+000,-1.527428e-005,1.437131e-005
1.201500e+000,-1.527428e-005,1.438838e-005
1.202294e+000,-1.158160e-005,1.440259e-005
1.203088e+000,-1.158160e-005,1.440506e-005
1.203882e+000,-1.158160e-005,1.441300e-005
1.204676e+000,-1.057450e-005,1.441908e-005
1.205471e+000,-8.896010e-006,1.442365e-005
1.206265e+000,-9.567407e-006,1.441581e-005
1.207059e+000,-1.191730e-005,1.439602e-005
1.207853e+000,-1.292439e-005,1.437736e-005
1.208647e+000,-1.225299e-005,1.436887e-005
1.209441e+000,-1.124590e-005,1.436794e-005
1.210235e+000,-1.225299e-005,1.436345e-005
1.211029e+000,-1.644922e-005,1.435535e-005
1.211824e+000,-1.493858e-005,1.436061e-005
1.212618e+000,-1.292439e-005,1.435596e-005
1.213412e+000,-1.091020e-005,1.434628e-005
1.214206e+000,-1.326009e-005,1.432883e-005
1.215000e+000,-1.225299e-005,1.430838e-005
1.215794e+000,-1.242084e-005,1.429435e-005
1.216588e+000,-1.460288e-005,1.430061e-005
1.217382e+000,-1.594568e-005,1.431229e-005
1.218176e+000,-1.493858e-005,1.432692e-005
1.218971e+000,-1.695277e-005,1.433118e-005
1.219765e+000,-1.963836e-005,1.434049e-005
1.220559e+000,-1.628138e-005,1.435796e-005
1.221353e+000,-1.896696e-005,1.435024e-005
1.222147e+000,-1.661708e-005,1.434131e-005
1.222941e+000,-1.091020e-005,1.435144e-005
1.223735e+000,-9.567407e-006,1.434611e-005
1.224529e+000,-8.560311e-006,1.433149e-005
1.225324e+000,-7.888914e-006,1.431909e-005
1.226118e+000,-9.903105e-006,1.430442e-005
1.226912e+000,-1.493858e-005,1.430653e-005
1.227706e+000,-1.158160e-005,1.431812e-005
1.228500e+000,-9.903105e-006,1.430931e-005
1.229294e+000,-7.217518e-006,1.427728e-005
1.230088e+000,-1.158160e-005,1.425350e-005
1.230882e+000,-1.560998e-005,1.422827e-005
1.231676e+000,-1.443504e-005,1.421808e-005
1.232471e+000,-1.493858e-005,1.422071e-005
1.233265e+000,-1.695277e-005,1.420541e-005
1.234059e+000,-1.846342e-005,1.420412e-005
1.234853e+000,-1.762417e-005,1.422161e-005
1.235647e+000,-1.594568e-005,1.423863e-005
1.236441e+000,-1.695277e-005,1.424789e-005
1.237235e+000,-1.661708e-005,1.426828e-005
1.238029e+000,-1.460288e-005,1.428887e-005
1.238824e+000,-1.443504e-005,1.429768e-005
1.239618e+000,-1.628138e-005,1.430638e-005
1.240412e+000,-1.527428e-005,1.431530e-005
1.241206e+000,-1.577783e-005,1.431587e-005
1.242000e+000,-1.493858e-005,1.432092e-005
1.242794e+000,-1.628138e-005,1.433692e-005
1.243588e+000,-1.829557e-005,1.436206e-005
1.244382e+000,-1.846342e-005,1.438753e-005
1.245176e+000,-1.896696e-005,1.440770e-005
1.245971e+000,-1.829557e-005,1.443262e-005
1.246765e+000,-1.644922e-005,1.446143e-005
1.247559e+000,-1.560998e-005,1.448573e-005
1.248353e+000,-1.695277e-005,1.450099e-005
1.249147e+000,-1.527428e-005,1.451420e-005
1.249941e+000,-1.628138e-005,1.452673e-005
1.250735e+000,-1.309224e-005,1.453932e-005
1.251529e+000,-1.023880e-005,1.453141e-005
1.252324e+000,-1.107805e-005,1.451139e-005
1.253118e+000,-1.225299e-005,1.449076e-005
1.253912e+000,-1.191730e-005,1.448890e-005
1.254706e+000,-1.527428e-005,1.447998e-005
1.255500e+000,-1.426719e-005,1.447527e-005
1.256294e+000,-1.158160e-005,1.446083e-005
1.257088e+000,-9.567407e-006,1.445102e-005
1.257882e+000,-1.091020e-005,1.444023e-005
1.258676e+000,-1.225299e-005,1.441909e-005
1.259471e+000,-1.023880e-005,1.438933e-005
1.260265e+000,-1.359579e-005,1.436110e-005
1.261059e+000,-1.628138e-005,1.434714e-005
1.261853e+000,-1.158160e-005,1.434952e-005
1.262647e+000,-1.174945e-005,1.433964e-005
1.263441e+000,-8.896010e-006,1.431709e-005
1.264235e+000,-1.359579e-005,1.428585e-005
1.265029e+000,-1.393149e-005,1.427182e-005
1.265824e+000,-9.735256e-006,1.426570e-005
1.266618e+000,-1.057450e-005,1.425513e-005
1.267412e+000,-9.567407e-006,1.424594e-005
1.268206e+000,-1.091020e-005,1.424367e-005
1.269000e+000,-1.493858e-005,1.424879e-005
1.269794e+000,-1.560998e-005,1.426276e-005
1.270588e+000,-1.695277e-005,1.427410e-005
1.271382e+000,-1.930266e-005,1.429368e-005
1.272176e+000,-1.963836e-005,1.432347e-005
1.272971e+000,-1.560998e-005,1.434776e-005
1.273765e+000,-1.493858e-005,1.435991e-005
1.274559e+000,-1.644922e-005,1.436613e-005
1.275353e+000,-1.460288e-005,1.438125e-005
1.276147e+000,-1.426719e-005,1.439085e-005
1.276941e+000,-1.225299e-005,1.439489e-005
1.277735e+000,-1.359579e-005,1.438681e-005
1.278529e+000,-1.292439e-005,1.438145e-005
1.279324e+000,-1.359579e-005,1.437059e-005
1.280118e+000,-1.376364e-005,1.435664e-005
1.280912e+000,-1.091020e-005,1.433486e-005
1.281706e+000,-1.258869e-005,1.430521e-005
1.282500e+000,-1.493858e-005,1.428208e-005
1.283294e+000,-1.560998e-005,1.427980e-005
1.284088e+000,-1.695277e-005,1.428834e-005
1.284882e+000,-1.695277e-005,1.429203e-005
1.285676e+000,-1.628138e-005,1.429631e-005
1.286471e+000,-1.762417e-005,1.429870e-005
1.287265e+000,-1.359579e-005,1.430497e-005
1.288059e+000,-1.124590e-005,1.430289e-005
1.288853e+000,-1.057450e-005,1.430116e-005
1.289647e+000,-9.567407e-006,1.430342e-005
1.290441e+000,-8.224612e-006,1.429953e-005
1.291235e+000,-9.567407e-006,1.429538e-005
1.292029e+000,-1.225299e-005,1.429609e-005
1.292824e+000,-1.510643e-005,1.429830e-005
1.293618e+000,-1.258869e-005,1.430699e-005
1.294412e+000,-1.493858e-005,1.430197e-005
1.295206e+000,-1.896696e-005,1.428955e-005
1.296000e+000,-1.644922e-005,1.429886e-005
1.296794e+000,-1.896696e-005,1.430414e-005
1.297588e+000,-2.131685e-005,1.432557e-005
1.298382e+000,-2.198825e-005,1.434780e-005
1.299176e+000,-1.829557e-005,1.438288e-005
1.299971e+000,-1.930266e-005,1.440238e-005
1.300765e+000,-1.628138e-005,1.442312e-005
1.301559e+000,-1.191730e-005,1.443757e-005
1.302353e+000,-8.560311e-006,1.444011e-005
1.303147e+000,-1.376364e-005,1.443506e-005
1.303941e+000,-1.225299e-005,1.443940e-005
1.304735e+000,-1.326009e-005,1.444439e-005
1.305529e+000,-1.426719e-005,1.445438e-005
1.306324e+000,-1.628138e-005,1.446934e-005
1.307118e+000,-1.594568e-005,1.449512e-005
1.307912e+000,-1.258869e-005,1.452302e-005
1.308706e+000,-1.426719e-005,1.453986e-005
1.309500e+000,-9.231709e-006,1.455474e-005
1.310294e+000,-7.049668e-006,1.455104e-005
1.311088e+000,-6.210422e-006,1.454500e-005
1.311882e+000,-7.553216e-006,1.452640e-005
1.312676e+000,-4.867628e-006,1.450358e-005
1.313471e+000,-5.874723e-006,1.446083e-005
1.314265e+000,-2.853437e-006,1.442211e-005
1.315059e+000,-2.853437e-006,1.437116e-005
1.315853e+000,-7.553216e-006,1.430809e-005
1.316647e+000,-8.224612e-006,1.426219e-005
1.317441e+000,-8.224612e-006,1.423370e-005
1.318235e+000,-1.124590e-005,1.421515e-005
1.319029e+000,-1.158160e-005,1.420432e-005
1.319824e+000,-8.896010e-006,1.420432e-005
1.320618e+000,-1.023880e-005,1.418760e-005
1.321412e+000,-1.225299e-005,1.417651e-005
1.322206e+000,-1.091020e-005,1.417831e-005
1.323000e+000,-1.359579e-005,1.416772e-005
1.323794e+000,-1.057450e-005,1.415619e-005
1.324588e+000,-9.063859e-006,1.414366e-005
1.325382e+000,-1.057450e-005,1.412999e-005
1.326176e+000,-1.292439e-005,1.411744e-005
1.326971e+000,-1.628138e-005,1.410820e-005
1.327765e+000,-1.628138e-005,1.410820e-005
1.328559e+000,-1.493858e-005,1.411460e-005
1.329353e+000,-1.393149e-005,1.411892e-005
1.330147e+000,-1.258869e-005,1.411391e-005
1.330941e+000,-1.225299e-005,1.410430e-005
1.331735e+000,-1.359579e-005,1.409131e-005
1.332529e+000,-1.695277e-005,1.407972e-005
1.333324e+000,-1.795987e-005,1.408224e-005
1.334118e+000,-2.165255e-005,1.409781e-005
1.334912e+000,-2.064546e-005,1.413185e-005
1.335706e+000,-2.030976e-005,1.414876e-005
1.336500e+000,-2.165255e-005,1.416534e-005
1.337294e+000,-2.299535e-005,1.418698e-005
1.338088e+000,-2.030976e-005,1.421895e-005
1.338882e+000,-1.963836e-005,1.423900e-005
1.339676e+000,-1.963836e-005,1.425827e-005
1.340471e+000,-2.232395e-005,1.427859e-005
1.341265e+000,-1.594568e-005,1.431143e-005
1.342059e+000,-1.695277e-005,1.431813e-005
1.342853e+000,-1.661708e-005,1.433246e-005
1.343647e+000,-1.762417e-005,1.435185e-005
1.344441e+000,-2.098116e-005,1.437684e-005
1.345235e+000,-1.963836e-005,1.440706e-005
1.346029e+000,-1.695277e-005,1.443953e-005
1.346824e+000,-1.493858e-005,1.445809e-005
1.347618e+000,-1.527428e-005,1.447459e-005
1.348412e+000,-1.493858e-005,1.449154e-005
1.349206e+000,-1.426719e-005,1.450297e-005
1.350000e+000,-1.712062e-005,1.450082e-005
1.350794e+000,-2.182040e-005,1.450850e-005
1.351588e+000,-2.098116e-005,1.454764e-005
1.352382e+000,-2.064546e-005,1.457138e-005
1.353176e+000,-1.695277e-005,1.457724e-005
1.353971e+000,-1.225299e-005,1.456130e-005
1.354765e+000,-1.091020e-005,1.454503e-005
1.355559e+000,-9.567407e-006,1.451581e-005
1.356353e+000,-1.124590e-005,1.449176e-005
1.357147e+000,-9.063859e-006,1.446749e-005
1.357941e+000,-8.896010e-006,1.442646e-005
1.358735e+000,-9.903105e-006,1.438655e-005
1.359529e+000,-1.191730e-005,1.436805e-005
1.360324e+000,-1.493858e-005,1.436528e-005
1.361118e+000,-1.023880e-005,1.437600e-005
1.361912e+000,-1.124590e-005,1.437674e-005
1.362706e+000,-1.493858e-005,1.437225e-005
1.363500e+000,-1.460288e-005,1.437649e-005
1.364294e+000,-1.527428e-005,1.437862e-005
1.365088e+000,-1.292439e-005,1.437747e-005
1.365882e+000,-1.292439e-005,1.438196e-005
1.366676e+000,-1.225299e-005,1.439032e-005
1.367471e+000,-1.359579e-005,1.438939e-005
1.368265e+000,-1.393149e-005,1.439747e-005
1.369059e+000,-1.158160e-005,1.441369e-005
1.369853e+000,-1.023880e-005,1.442401e-005
1.370647e+000,-1.225299e-005,1.442812e-005
1.371441e+000,-1.560998e-005,1.443155e-005
1.372235e+000,-1.695277e-005,1.443702e-005
1.373029e+000,-1.560998e-005,1.445304e-005
1.373824e+000,-1.426719e-005,1.446335e-005
1.374618e+000,-1.158160e-005,1.445657e-005
1.375412e+000,-1.359579e-005,1.445198e-005
1.376206e+000,-1.359579e-005,1.446362e-005
1.377000e+000,-1.292439e-005,1.447492e-005
1.377794e+000,-1.493858e-005,1.447897e-005
1.378588e+000,-1.560998e-005,1.449197e-005
1.379382e+000,-1.359579e-005,1.450225e-005
1.380176e+000,-1.393149e-005,1.449804e-005
1.380971e+000,-1.527428e-005,1.449259e-005
1.381765e+000,-1.560998e-005,1.448144e-005
1.382559e+000,-1.712062e-005,1.448479e-005
1.383353e+000,-1.795987e-005,1.450547e-005
1.384147e+000,-1.560998e-005,1.452058e-005
1.384941e+000,-1.023880e-005,1.452992e-005
1.385735e+000,-9.903105e-006,1.452310e-005
1.386529e+000,-8.896010e-006,1.450478e-005
1.387324e+000,-8.560311e-006,1.448063e-005
1.388118e+000,-1.158160e-005,1.445049e-005
1.388912e+000,-1.292439e-005,1.442837e-005
1.389706e+000,-1.258869e-005,1.440709e-005
1.390500e+000,-1.292439e-005,1.437112e-005
1.391294e+000,-1.493858e-005,1.434237e-005
1.392088e+000,-1.661708e-005,1.433396e-005
1.392882e+000,-1.695277e-005,1.434410e-005
1.393676e+000,-1.292439e-005,1.436397e-005
1.394471e+000,-1.326009e-005,1.436397e-005
1.395265e+000,-1.091020e-005,1.434902e-005
1.396059e+000,-1.158160e-005,1.432641e-005
1.396853e+000,-1.393149e-005,1.430678e-005
1.397647e+000,-1.258869e-005,1.431346e-005
1.398441e+000,-1.225299e-005,1.431942e-005
1.399235e+000,-1.225299e-005,1.432594e-005
1.400029e+000,-1.292439e-005,1.432357e-005
1.400824e+000,-1.695277e-005,1.431505e-005
1.401618e+000,-1.527428e-005,1.432594e-005
1.402412e+000,-2.030976e-005,1.433133e-005
1.403206e+000,-1.661708e-005,1.434770e-005
1.404000e+000,-1.560998e-005,1.435521e-005
1.404794e+000,-1.527428e-005,1.437136e-005
1.405588e+000,-1.544213e-005,1.438234e-005
1.406382e+000,-1.326009e-005,1.439389e-005
1.407176e+000,-1.158160e-005,1.440391e-005
1.407971e+000,-1.292439e-005,1.441324e-005
1.408765e+000,-1.661708e-005,1.442593e-005
1.409559e+000,-1.191730e-005,1.444629e-005
1.410353e+000,-1.258869e-005,1.444962e-005
1.411147e+000,-1.493858e-005,1.444868e-005
1.411941e+000,-1.560998e-005,1.445290e-005
1.412735e+000,-1.812772e-005,1.445516e-005
1.413529e+000,-1.795987e-005,1.446451e-005
1.414324e+000,-1.460288e-005,1.447203e-005
1.415118e+000,-1.376364e-005,1.447094e-005
1.415912e+000,-1.225299e-005,1.445760e-005
1.416706e+000,-1.023880e-005,1.443725e-005
1.417500e+000,-8.224612e-006,1.441187e-005
1.418294e+000,-6.881819e-006,1.438165e-005
1.419088e+000,-8.392462e-006,1.434702e-005
1.419882e+000,-9.567407e-006,1.432034e-005
1.420676e+000,-9.567407e-006,1.430457e-005
1.421471e+000,-1.091020e-005,1.429156e-005
1.422265e+000,-1.359579e-005,1.428809e-005
1.423059e+000,-1.527428e-005,1.429848e-005
1.423853e+000,-1.359579e-005,1.431240e-005
1.424647e+000,-1.393149e-005,1.431804e-005
1.425441e+000,-1.326009e-005,1.432293e-005
1.426235e+000,-1.225299e-005,1.431300e-005
1.427029e+000,-1.158160e-005,1.429772e-005
1.427824e+000,-1.359579e-005,1.428064e-005
1.428618e+000,-1.359579e-005,1.427856e-005
1.429412e+000,-1.225299e-005,1.427647e-005
1.430206e+000,-1.359579e-005,1.426115e-005
1.431000e+000,-1.426719e-005,1.426767e-005
1.431794e+000,-1.393149e-005,1.426319e-005
1.432588e+000,-1.376364e-005,1.423725e-005
1.433382e+000,-1.326009e-005,1.422369e-005
1.434176e+000,-1.359579e-005,1.420859e-005
1.434971e+000,-1.577783e-005,1.420200e-005
1.435765e+000,-1.728847e-005,1.420317e-005
1.436559e+000,-1.493858e-005,1.419915e-005
1.437353e+000,-1.359579e-005,1.419567e-005
1.438147e+000,-1.225299e-005,1.419137e-005
1.438941e+000,-1.225299e-005,1.418747e-005
1.439735e+000,-1.359579e-005,1.418747e-005
1.440529e+000,-1.493858e-005,1.417846e-005
1.441324e+000,-1.292439e-005,1.417376e-005
1.442118e+000,-1.510643e-005,1.416965e-005
1.442912e+000,-1.510643e-005,1.417652e-005
1.443706e+000,-1.258869e-005,1.418878e-005
1.444500e+000,-1.493858e-005,1.419238e-005
1.445294e+000,-1.493858e-005,1.420236e-005
1.446088e+000,-1.577783e-005,1.421234e-005
1.446882e+000,-1.728847e-005,1.421952e-005
1.447676e+000,-1.795987e-005,1.422911e-005
1.448471e+000,-1.661708e-005,1.424188e-005
1.449265e+000,-1.493858e-005,1.425208e-005
1.450059e+000,-1.309224e-005,1.425636e-005
1.450853e+000,-8.896010e-006,1.424945e-005
1.451647e+000,-1.258869e-005,1.423221e-005
1.452441e+000,-1.695277e-005,1.423493e-005
1.453235e+000,-1.174945e-005,1.425207e-005
1.454029e+000,-1.762417e-005,1.425251e-005
1.454824e+000,-1.846342e-005,1.427470e-005
1.455618e+000,-1.527428e-005,1.430387e-005
1.456412e+000,-1.460288e-005,1.431964e-005
1.457206e+000,-1.493858e-005,1.432756e-005
1.458000e+000,-1.460288e-005,1.433380e-005
1.458794e+000,-1.359579e-005,1.434080e-005
1.459588e+000,-9.567407e-006,1.434729e-005
1.460382e+000,-1.158160e-005,1.434078e-005
1.461176e+000,-1.091020e-005,1.432562e-005
1.461971e+000,-1.225299e-005,1.431404e-005
1.462765e+000,-1.359579e-005,1.431216e-005
1.463559e+000,-1.158160e-005,1.431948e-005
1.464353e+000,-1.258869e-005,1.431484e-005
1.465147e+000,-1.091020e-005,1.431577e-005
1.465941e+000,-8.224612e-006,1.431185e-005
1.466735e+000,-1.091020e-005,1.429564e-005
1.467529e+000,-1.493858e-005,1.428057e-005
1.468324e+000,-1.846342e-005,1.428057e-005
1.469118e+000,-1.795987e-005,1.428654e-005
1.469912e+000,-1.661708e-005,1.427950e-005
1.470706e+000,-1.560998e-005,1.428073e-005
1.471500e+000,-1.628138e-005,1.426778e-005
1.472294e+000,-1.728847e-005,1.426655e-005
1.473088e+000,-1.426719e-005,1.428661e-005
1.473882e+000,-1.426719e-005,1.429909e-005
1.474676e+000,-1.560998e-005,1.431359e-005
1.475471e+000,-1.510643e-005,1.433376e-005
1.476265e+000,-1.426719e-005,1.434821e-005
1.477059e+000,-1.493858e-005,1.434604e-005
1.477853e+000,-1.628138e-005,1.435591e-005
1.478647e+000,-1.443504e-005,1.437443e-005
1.479441e+000,-1.493858e-005,1.439173e-005
1.480235e+000,-1.628138e-005,1.440158e-005
1.481029e+000,-1.527428e-005,1.440394e-005
1.481824e+000,-1.359579e-005,1.440670e-005
1.482618e+000,-1.393149e-005,1.440246e-005
1.483412e+000,-1.158160e-005,1.439214e-005
1.484206e+000,-1.292439e-005,1.436925e-005
1.485000e+000,-1.426719e-005,1.435333e-005
1.485794e+000,-1.258869e-005,1.434770e-005
1.486588e+000,-1.393149e-005,1.433339e-005
1.487382e+000,-1.258869e-005,1.432427e-005
1.488176e+000,-1.158160e-005,1.431818e-005
1.488971e+000,-1.359579e-005,1.430992e-005
1.489765e+000,-1.359579e-005,1.430099e-005
1.490559e+000,-1.242084e-005,1.429560e-005
1.491353e+000,-9.567407e-006,1.428505e-005
1.492147e+000,-1.393149e-005,1.427037e-005
1.492941e+000,-1.527428e-005,1.426244e-005
1.493735e+000,-1.527428e-005,1.425111e-005
1.494529e+000,-1.963836e-005,1.423909e-005
1.495324e+000,-1.963836e-005,1.424198e-005
1.496118e+000,-1.510643e-005,1.424768e-005
1.496912e+000,-1.963836e-005,1.424294e-005
1.497706e+000,-2.299535e-005,1.425881e-005
1.498500e+000,-2.198825e-005,1.428574e-005
1.499294e+000,-1.728847e-005,1.431360e-005
1.500088e+000,-1.393149e-005,1.431736e-005
1.500882e+000,-1.527428e-005,1.431988e-005
1.501676e+000,-1.393149e-005,1.433416e-005
1.502471e+000,-1.393149e-005,1.434209e-005
1.503265e+000,-1.560998e-005,1.434697e-005
1.504059e+000,-1.695277e-005,1.435824e-005
1.504853e+000,-1.829557e-005,1.436424e-005
1.505647e+000,-1.560998e-005,1.437878e-005
1.506441e+000,-1.225299e-005,1.439090e-005
1.507235e+000,-9.567407e-006,1.439738e-005
1.508029e+000,-5.874723e-006,1.439434e-005
1.508824e+000,-1.023880e-005,1.438155e-005
1.509618e+000,-1.225299e-005,1.438155e-005
1.510412e+000,-1.091020e-005,1.437770e-005
1.511206e+000,-7.217518e-006,1.436152e-005
1.512000e+000,-1.225299e-005,1.435242e-005
1.512794e+000,-1.309224e-005,1.435376e-005
1.513588e+000,-1.493858e-005,1.436399e-005
1.514382e+000,-1.829557e-005,1.436824e-005
1.515176e+000,-1.628138e-005,1.438382e-005
1.515971e+000,-1.594568e-005,1.440266e-005
1.516765e+000,-1.829557e-005,1.441840e-005
1.517559e+000,-1.258869e-005,1.444523e-005
1.518353e+000,-1.124590e-005,1.444958e-005
1.519147e+000,-8.896010e-006,1.443892e-005
1.519941e+000,-1.023880e-005,1.442076e-005
1.520735e+000,-1.023880e-005,1.440059e-005
1.521529e+000,-9.567407e-006,1.437095e-005
1.522324e+000,-1.023880e-005,1.433832e-005
1.523118e+000,-1.124590e-005,1.432290e-005
1.523912e+000,-9.735256e-006,1.431214e-005
1.524706e+000,-1.091020e-005,1.429257e-005
1.525500e+000,-1.527428e-005,1.428207e-005
1.526294e+000,-1.527428e-005,1.428539e-005
1.527088e+000,-1.393149e-005,1.429465e-005
1.527882e+000,-1.007095e-005,1.429568e-005
1.528676e+000,-8.896010e-006,1.428837e-005
1.529471e+000,-1.091020e-005,1.427659e-005
1.530265e+000,-8.224612e-006,1.426873e-005
1.531059e+000,-8.896010e-006,1.426300e-005
1.531853e+000,-9.903105e-006,1.425413e-005
1.532647e+000,-9.903105e-006,1.424015e-005
1.533441e+000,-1.326009e-005,1.422386e-005
1.534235e+000,-1.225299e-005,1.421137e-005
1.535029e+000,-1.023880e-005,1.419598e-005
1.535824e+000,-9.567407e-006,1.417799e-005
1.536618e+000,-8.896010e-006,1.415337e-005
1.537412e+000,-9.567407e-006,1.414147e-005
1.538206e+000,-1.225299e-005,1.413753e-005
1.539000e+000,-1.460288e-005,1.414185e-005
1.539794e+000,-1.493858e-005,1.415555e-005
1.540588e+000,-1.695277e-005,1.417303e-005
1.541382e+000,-2.098116e-005,1.419502e-005
1.542176e+000,-2.366674e-005,1.422752e-005
1.542971e+000,-2.098116e-005,1.426462e-005
1.543765e+000,-2.030976e-005,1.429603e-005
1.544559e+000,-2.165255e-005,1.431711e-005
1.545353e+000,-1.829557e-005,1.432923e-005
1.546147e+000,-1.560998e-005,1.433636e-005
1.546941e+000,-1.560998e-005,1.432346e-005
1.547735e+000,-1.661708e-005,1.430002e-005
1.548529e+000,-1.829557e-005,1.427691e-005
1.549324e+000,-1.896696e-005,1.427691e-005
1.550118e+000,-1.560998e-005,1.427547e-005
1.550912e+000,-1.829557e-005,1.427309e-005
1.551706e+000,-1.628138e-005,1.429457e-005
1.552500e+000,-1.292439e-005,1.431592e-005
1.553294e+000,-1.359579e-005,1.431343e-005
1.554088e+000,-1.460288e-005,1.431729e-005
1.554882e+000,-1.661708e-005,1.432145e-005
1.555676e+000,-1.930266e-005,1.432952e-005
1.556471e+000,-1.963836e-005,1.434146e-005
1.557265e+000,-1.829557e-005,1.435604e-005
1.558059e+000,-1.762417e-005,1.437558e-005
1.558853e+000,-1.829557e-005,1.438743e-005
1.559647e+000,-1.560998e-005,1.441502e-005
1.560441e+000,-9.231709e-006,1.443643e-005
1.561235e+000,-1.158160e-005,1.444157e-005
1.562029e+000,-1.258869e-005,1.445007e-005
1.562824e+000,-9.903105e-006,1.446492e-005
1.563618e+000,-9.567407e-006,1.447191e-005
1.564412e+000,-1.091020e-005,1.448108e-005
1.565206e+000,-1.023880e-005,1.449327e-005
1.566000e+000,-1.091020e-005,1.449852e-005
1.566794e+000,-1.426719e-005,1.450416e-005
1.567588e+000,-1.695277e-005,1.451908e-005
1.568382e+000,-1.493858e-005,1.453672e-005
1.569176e+000,-1.359579e-005,1.454646e-005
1.569971e+000,-1.359579e-005,1.455803e-005
1.570765e+000,-1.225299e-005,1.456678e-005
1.571559e+000,-1.443504e-005,1.456678e-005
1.572353e+000,-1.493858e-005,1.457654e-005
1.573147e+000,-1.594568e-005,1.458073e-005
1.573941e+000,-1.225299e-005,1.459628e-005
1.574735e+000,-1.393149e-005,1.460369e-005
1.575529e+000,-1.292439e-005,1.461266e-005
1.576324e+000,-8.896010e-006,1.461266e-005
1.577118e+000,-8.392462e-006,1.459238e-005
1.577912e+000,-1.091020e-005,1.457113e-005
1.578706e+000,-8.896010e-006,1.455974e-005
1.579500e+000,-9.567407e-006,1.454716e-005
1.580294e+000,-7.553216e-006,1.453984e-005
1.581088e+000,-8.896010e-006,1.452964e-005
1.581882e+000,-1.158160e-005,1.451805e-005
1.582676e+000,-9.567407e-006,1.450123e-005
1.583471e+000,-1.023880e-005,1.447584e-005
1.584265e+000,-9.231709e-006,1.443574e-005
1.585059e+000,-1.023880e-005,1.439808e-005
1.585853e+000,-1.124590e-005,1.436401e-005
1.586647e+000,-1.493858e-005,1.432601e-005
1.587441e+000,-1.359579e-005,1.429200e-005
1.588235e+000,-1.393149e-005,1.426661e-005
1.589029e+000,-1.258869e-005,1.424521e-005
1.589824e+000,-1.443504e-005,1.421980e-005
1.590618e+000,-1.896696e-005,1.418728e-005
1.591412e+000,-1.829557e-005,1.419912e-005
1.592206e+000,-1.661708e-005,1.420443e-005
1.593000e+000,-1.829557e-005,1.420443e-005
1.593794e+000,-1.829557e-005,1.420713e-005
1.594588e+000,-1.695277e-005,1.419530e-005
1.595382e+000,-1.963836e-005,1.418427e-005
1.596176e+000,-1.846342e-005,1.419530e-005
1.596971e+000,-1.560998e-005,1.420850e-005
1.597765e+000,-1.292439e-005,1.420966e-005
1.598559e+000,-1.225299e-005,1.420337e-005
1.599353e+000,-1.493858e-005,1.419738e-005
1.600147e+000,-1.628138e-005,1.418954e-005
1.600941e+000,-1.393149e-005,1.416583e-005
1.601735e+000,-1.158160e-005,1.413814e-005
1.602529e+000,-1.292439e-005,1.410520e-005
1.603324e+000,-1.091020e-005,1.409161e-005
1.604118e+000,-1.023880e-005,1.408809e-005
1.604912e+000,-1.174945e-005,1.408649e-005
1.605706e+000,-1.225299e-005,1.409174e-005
1.606500e+000,-1.225299e-005,1.409442e-005
1.607294e+000,-1.309224e-005,1.410210e-005
1.608088e+000,-1.426719e-005,1.411251e-005
1.608882e+000,-1.560998e-005,1.412441e-005
1.609676e+000,-1.628138e-005,1.413587e-005
1.610471e+000,-1.493858e-005,1.414059e-005
1.611265e+000,-1.493858e-005,1.415390e-005
1.612059e+000,-1.393149e-005,1.416478e-005
1.612853e+000,-1.326009e-005,1.416151e-005
1.613647e+000,-1.225299e-005,1.415730e-005
1.614441e+000,-1.023880e-005,1.414794e-005
1.615235e+000,-1.426719e-005,1.414094e-005
1.616029e+000,-1.695277e-005,1.414505e-005
1.616824e+000,-1.544213e-005,1.416050e-005
1.617618e+000,-9.231709e-006,1.416652e-005
1.618412e+000,-1.124590e-005,1.415428e-005
1.619206e+000,-1.493858e-005,1.415342e-005
1.620000e+000,-1.124590e-005,1.416673e-005
1.620794e+000,-1.292439e-005,1.416407e-005
1.621588e+000,-1.426719e-005,1.415545e-005
1.622382e+000,-1.493858e-005,1.414601e-005
1.623176e+000,-1.326009e-005,1.414370e-005
1.623971e+000,-9.903105e-006,1.414058e-005
1.624765e+000,-1.326009e-005,1.413652e-005
1.625559e+000,-1.695277e-005,1.413550e-005
1.626353e+000,-1.896696e-005,1.414705e-005
1.627147e+000,-1.661708e-005,1.416873e-005
1.627941e+000,-1.644922e-005,1.417468e-005
1.628735e+000,-1.762417e-005,1.417770e-005
1.629529e+000,-1.930266e-005,1.419182e-005
1.630324e+000,-1.896696e-005,1.421183e-005
1.631118e+000,-1.963836e-005,1.422599e-005
1.631912e+000,-1.829557e-005,1.424188e-005
1.632706e+000,-1.762417e-005,1.424653e-005
1.633500e+000,-1.493858e-005,1.424519e-005
1.634294e+000,-1.225299e-005,1.424290e-005
1.635088e+000,-1.091020e-005,1.424797e-005
1.635882e+000,-9.567407e-006,1.425031e-005
1.636676e+000,-1.023880e-005,1.425169e-005
1.637471e+000,-1.359579e-005,1.425522e-005
1.638265e+000,-1.527428e-005,1.426088e-005
1.639059e+000,-1.225299e-005,1.426828e-005
1.639853e+000,-1.225299e-005,1.426735e-005
1.640647e+000,-9.735256e-006,1.426546e-005
1.641441e+000,-1.124590e-005,1.425112e-005
1.642235e+000,-1.493858e-005,1.423439e-005
1.643029e+000,-1.560998e-005,1.422720e-005
1.643824e+000,-1.426719e-005,1.423578e-005
1.644618e+000,-1.695277e-005,1.423888e-005
1.645412e+000,-1.896696e-005,1.425770e-005
1.646206e+000,-1.493858e-005,1.428287e-005
1.647000e+000,-1.225299e-005,1.428611e-005
1.647794e+000,-1.712062e-005,1.428518e-005
1.648588e+000,-1.158160e-005,1.430111e-005
1.649382e+000,-1.393149e-005,1.429933e-005
1.650176e+000,-1.527428e-005,1.430234e-005
1.650971e+000,-1.326009e-005,1.429632e-005
1.651765e+000,-9.903105e-006,1.428991e-005
1.652559e+000,-6.546120e-006,1.425483e-005
1.653353e+000,-8.560311e-006,1.422875e-005
1.654147e+000,-1.158160e-005,1.420967e-005
1.654941e+000,-1.258869e-005,1.419855e-005
1.655735e+000,-1.225299e-005,1.418958e-005
1.656529e+000,-1.091020e-005,1.418670e-005
1.657324e+000,-1.326009e-005,1.418500e-005
1.658118e+000,-1.158160e-005,1.418599e-005
1.658912e+000,-1.158160e-005,1.417004e-005
1.659706e+000,-1.426719e-005,1.416915e-005
1.660500e+000,-1.225299e-005,1.417422e-005
1.661294e+000,-1.443504e-005,1.416601e-005
1.662088e+000,-1.644922e-005,1.416204e-005
1.662882e+000,-1.527428e-005,1.415552e-005
1.663676e+000,-1.560998e-005,1.414547e-005
1.664471e+000,-1.695277e-005,1.414890e-005
1.665265e+000,-1.829557e-005,1.415992e-005
1.666059e+000,-1.225299e-005,1.418066e-005
1.666853e+000,-1.393149e-005,1.418575e-005
1.667647e+000,-1.174945e-005,1.419993e-005
1.668441e+000,-1.225299e-005,1.421010e-005
1.669235e+000,-1.326009e-005,1.421903e-005
1.670029e+000,-1.560998e-005,1.422846e-005
1.670824e+000,-1.560998e-005,1.424548e-005
1.671618e+000,-1.527428e-005,1.425941e-005
1.672412e+000,-1.359579e-005,1.426482e-005
1.673206e+000,-1.326009e-005,1.425941e-005
1.674000e+000,-1.762417e-005,1.425840e-005
1.674794e+000,-1.695277e-005,1.427141e-005
1.675588e+000,-1.426719e-005,1.428385e-005
1.676382e+000,-1.359579e-005,1.428980e-005
1.677176e+000,-1.493858e-005,1.429545e-005
1.677971e+000,-1.258869e-005,1.429972e-005
1.678765e+000,-1.124590e-005,1.429678e-005
1.679559e+000,-1.023880e-005,1.429415e-005
1.680353e+000,-1.023880e-005,1.428523e-005
1.681147e+000,-1.091020e-005,1.427422e-005
1.681941e+000,-1.023880e-005,1.426585e-005
1.682735e+000,-8.896010e-006,1.425640e-005
1.683529e+000,-1.258869e-005,1.424559e-005
1.684324e+000,-1.258869e-005,1.424265e-005
1.685118e+000,-1.225299e-005,1.423253e-005
1.685912e+000,-1.393149e-005,1.421588e-005
1.686706e+000,-1.527428e-005,1.421262e-005
1.687500e+000,-1.560998e-005,1.421805e-005
1.688294e+000,-1.695277e-005,1.422852e-005
1.689088e+000,-1.393149e-005,1.424387e-005
1.689882e+000,-1.124590e-005,1.424491e-005
1.690676e+000,-1.661708e-005,1.423409e-005
1.691471e+000,-1.762417e-005,1.424629e-005
1.692265e+000,-1.443504e-005,1.425550e-005
1.693059e+000,-1.460288e-005,1.425328e-005
1.693853e+000,-1.846342e-005,1.425940e-005
1.694647e+000,-1.963836e-005,1.427254e-005
1.695441e+000,-1.829557e-005,1.429066e-005
1.696235e+000,-1.896696e-005,1.430022e-005
1.697029e+000,-1.913481e-005,1.430699e-005
1.697824e+000,-1.695277e-005,1.431184e-005
1.698618e+000,-1.661708e-005,1.431310e-005
1.699412e+000,-1.829557e-005,1.431899e-005
1.700206e+000,-1.560998e-005,1.433714e-005
1.701000e+000,-1.577783e-005,1.435540e-005
1.701794e+000,-1.560998e-005,1.436543e-005
1.702588e+000,-1.292439e-005,1.436059e-005
1.703382e+000,-1.091020e-005,1.436380e-005
1.704176e+000,-1.124590e-005,1.434255e-005
1.704971e+000,-1.225299e-005,1.431872e-005
1.705765e+000,-1.158160e-005,1.430947e-005
1.706559e+000,-1.376364e-005,1.430066e-005
1.707353e+000,-1.829557e-005,1.429691e-005
1.708147e+000,-1.896696e-005,1.431043e-005
1.708941e+000,-2.064546e-005,1.432988e-005
1.709735e+000,-2.299535e-005,1.436702e-005
1.710529e+000,-2.165255e-005,1.441070e-005
1.711324e+000,-2.098116e-005,1.444930e-005
1.712118e+000,-1.779202e-005,1.448123e-005
1.712912e+000,-1.628138e-005,1.449570e-005
1.713706e+000,-1.493858e-005,1.451008e-005
1.714500e+000,-1.628138e-005,1.451718e-005
1.715294e+000,-1.426719e-005,1.453319e-005
1.716088e+000,-9.735256e-006,1.454807e-005
1.716882e+000,-1.040665e-005,1.454542e-005
1.717676e+000,-1.326009e-005,1.453284e-005
1.718471e+000,-1.493858e-005,1.451474e-005
1.719265e+000,-1.124590e-005,1.450383e-005
1.720059e+000,-9.567407e-006,1.448739e-005
1.720853e+000,-8.896010e-006,1.447066e-005
1.721647e+000,-1.023880e-005,1.445019e-005
1.722441e+000,-9.231709e-006,1.442879e-005
1.723235e+000,-8.224612e-006,1.441572e-005
1.724029e+000,-9.231709e-006,1.440070e-005
1.724824e+000,-8.896010e-006,1.438317e-005
1.725618e+000,-4.867628e-006,1.436666e-005
1.726412e+000,-5.874723e-006,1.434671e-005
1.727206e+000,-7.217518e-006,1.432576e-005
1.728000e+000,-7.553216e-006,1.430206e-005
1.728794e+000,-1.023880e-005,1.428520e-005
1.729588e+000,-1.191730e-005,1.427201e-005
1.730382e+000,-1.057450e-005,1.425827e-005
1.731176e+000,-1.225299e-005,1.424470e-005
1.731971e+000,-1.292439e-005,1.424082e-005
1.732765e+000,-1.493858e-005,1.423779e-005
1.733559e+000,-1.460288e-005,1.424775e-005
1.734353e+000,-1.191730e-005,1.425291e-005
1.735147e+000,-1.158160e-005,1.424603e-005
1.735941e+000,-1.493858e-005,1.424331e-005
1.736735e+000,-1.242084e-005,1.424656e-005
1.737529e+000,-1.023880e-005,1.424609e-005
1.738324e+000,-1.426719e-005,1.424282e-005
1.739118e+000,-1.493858e-005,1.424491e-005
1.739912e+000,-1.762417e-005,1.424919e-005
1.740706e+000,-1.493858e-005,1.426665e-005
1.741500e+000,-1.510643e-005,1.428134e-005
1.742294e+000,-2.030976e-005,1.428514e-005
1.743088e+000,-1.896696e-005,1.430510e-005
1.743882e+000,-1.493858e-005,1.431917e-005
1.744676e+000,-1.258869e-005,1.430108e-005
1.745471e+000,-1.292439e-005,1.427577e-005
1.746265e+000,-1.292439e-005,1.426894e-005
1.747059e+000,-1.191730e-005,1.424452e-005
1.747853e+000,-1.225299e-005,1.420122e-005
1.748647e+000,-1.393149e-005,1.416379e-005
1.749441e+000,-1.393149e-005,1.415201e-005
1.750235e+000,-1.762417e-005,1.415201e-005
1.751029e+000,-1.863127e-005,1.416070e-005
1.751824e+000,-1.560998e-005,1.417790e-005
1.752618e+000,-1.560998e-005,1.418347e-005
1.753412e+000,-1.762417e-005,1.418347e-005
1.754206e+000,-1.628138e-005,1.418608e-005
1.755000e+000,-2.030976e-005,1.417826e-005
1.755794e+000,-1.829557e-005,1.419720e-005
1.756588e+000,-1.963836e-005,1.421789e-005
1.757382e+000,-1.577783e-005,1.425080e-005
1.758176e+000,-1.225299e-005,1.427473e-005
1.758971e+000,-1.527428e-005,1.427979e-005
1.759765e+000,-1.560998e-005,1.428906e-005
1.760559e+000,-1.594568e-005,1.430294e-005
1.761353e+000,-1.426719e-005,1.432543e-005
1.762147e+000,-1.292439e-005,1.433137e-005
1.762941e+000,-1.225299e-005,1.433088e-005
1.763735e+000,-1.426719e-005,1.432277e-005
1.764529e+000,-1.242084e-005,1.430818e-005
1.765324e+000,-1.292439e-005,1.429584e-005
1.766118e+000,-1.309224e-005,1.428612e-005
1.766912e+000,-1.560998e-005,1.426790e-005
1.767706e+000,-1.460288e-005,1.427741e-005
1.768500e+000,-1.225299e-005,1.428708e-005
1.769294e+000,-9.567407e-006,1.429499e-005
1.770088e+000,-1.225299e-005,1.429351e-005
1.770882e+000,-8.896010e-006,1.429856e-005
1.771676e+000,-4.867628e-006,1.429718e-005
1.772471e+000,-6.881819e-006,1.428814e-005
1.773265e+000,-7.888914e-006,1.427932e-005
1.774059e+000,-1.057450e-005,1.427569e-005
1.774853e+000,-1.124590e-005,1.427488e-005
1.775647e+000,-1.359579e-005,1.426296e-005
1.776441e+000,-9.567407e-006,1.425755e-005
1.777235e+000,-1.225299e-005,1.424609e-005
1.778029e+000,-1.795987e-005,1.425154e-005
1.778824e+000,-1.628138e-005,1.427871e-005
1.779618e+000,-1.493858e-005,1.429499e-005
1.780412e+000,-1.426719e-005,1.431230e-005
1.781206e+000,-1.510643e-005,1.432613e-005
1.782000e+000,-1.309224e-005,1.434059e-005
1.782794e+000,-1.493858e-005,1.434873e-005
1.783588e+000,-1.963836e-005,1.435398e-005
1.784382e+000,-1.493858e-005,1.438009e-005
1.785176e+000,-1.628138e-005,1.439319e-005
1.785971e+000,-1.930266e-005,1.441237e-005
1.786765e+000,-1.493858e-005,1.444476e-005
1.787559e+000,-9.567407e-006,1.445926e-005
1.788353e+000,-1.091020e-005,1.445281e-005
1.789147e+000,-1.225299e-005,1.444242e-005
1.789941e+000,-1.091020e-005,1.443437e-005
1.790735e+000,-1.141375e-005,1.441579e-005
1.791529e+000,-1.225299e-005,1.438151e-005
1.792324e+000,-1.191730e-005,1.433604e-005
1.793118e+000,-1.225299e-005,1.430288e-005
1.793912e+000,-1.023880e-005,1.427365e-005
1.794706e+000,-1.258869e-005,1.423298e-005
1.795500e+000,-1.091020e-005,1.421325e-005
1.796294e+000,-1.426719e-005,1.419928e-005
1.797088e+000,-1.527428e-005,1.419478e-005
1.797882e+000,-1.762417e-005,1.418998e-005
1.798676e+000,-1.829557e-005,1.418727e-005
1.799471e+000,-1.661708e-005,1.418446e-005
1.800265e+000,-1.644922e-005,1.418810e-005
1.801059e+000,-1.527428e-005,1.418090e-005
1.801853e+000,-1.426719e-005,1.417733e-005
1.802647e+000,-1.493858e-005,1.418143e-005
1.803441e+000,-1.712062e-005,1.418574e-005
1.804235e+000,-1.695277e-005,1.419470e-005
1.805029e+000,-1.863127e-005,1.419596e-005
1.805824e+000,-1.695277e-005,1.419311e-005
1.806618e+000,-1.510643e-005,1.418208e-005
1.807412e+000,-1.560998e-005,1.417011e-005
1.808206e+000,-1.309224e-005,1.416259e-005
1.809000e+000,-1.191730e-005,1.414421e-005
1.809794e+000,-1.158160e-005,1.413276e-005
1.810588e+000,-1.326009e-005,1.413827e-005
1.811382e+000,-1.158160e-005,1.414297e-005
1.812176e+000,-1.091020e-005,1.414023e-005
1.812971e+000,-1.191730e-005,1.414259e-005
1.813765e+000,-1.057450e-005,1.414827e-005
1.814559e+000,-1.091020e-005,1.414746e-005
1.815353e+000,-1.309224e-005,1.414906e-005
1.816147e+000,-1.426719e-005,1.415495e-005
1.816941e+000,-2.383459e-005,1.415495e-005
1.817735e+000,-2.652018e-005,1.418649e-005
1.818529e+000,-2.433814e-005,1.424028e-005
1.819324e+000,-2.903792e-005,1.428578e-005
1.820118e+000,-2.500954e-005,1.435897e-005
1.820912e+000,-8.224612e-006,1.441159e-005
1.821706e+000,1.174945e-006,1.439603e-005
1.822500e+000,8.560311e-006,1.437148e-005
1.823294e+000,1.678492e-006,1.435141e-005
1.824088e+000,-3.524834e-006,1.433506e-005
1.824882e+000,-2.182040e-006,1.431486e-005
1.825676e+000,-6.210422e-006,1.429680e-005
1.826471e+000,-1.158160e-005,1.429228e-005
1.827265e+000,-1.762417e-005,1.429938e-005
1.828059e+000,-2.265965e-005,1.432070e-005
1.828853e+000,-1.225299e-005,1.436891e-005
1.829647e+000,1.225299e-005,1.437540e-005
1.830441e+000,3.860533e-006,1.438571e-005
1.831235e+000,-1.191730e-005,1.437859e-005
1.832029e+000,-2.366674e-005,1.437947e-005
1.832824e+000,-3.978027e-005,1.443126e-005
1.833618e+000,-4.515145e-005,1.459340e-005
1.834412e+000,-3.810178e-005,1.480501e-005
1.835206e+000,-3.038071e-005,1.494918e-005
1.836000e+000,-2.232395e-005,1.503378e-005
1.836794e+000,-2.030976e-005,1.506290e-005
1.837588e+000,-2.047761e-005,1.508695e-005
1.838382e+000,-1.628138e-005,1.511070e-005
1.839176e+000,-1.510643e-005,1.512193e-005
1.839971e+000,-1.225299e-005,1.512402e-005
1.840765e+000,-1.493858e-005,1.510194e-005
1.841559e+000,-1.695277e-005,1.509017e-005
1.842353e+000,-1.158160e-005,1.509136e-005
1.843147e+000,-1.091020e-005,1.507018e-005
1.843941e+000,-1.158160e-005,1.504737e-005
1.844735e+000,-1.023880e-005,1.503114e-005
1.845529e+000,-1.124590e-005,1.500136e-005
1.846324e+000,-7.217518e-006,1.497858e-005
1.847118e+000,-6.881819e-006,1.495820e-005
1.847912e+000,-9.567407e-006,1.494546e-005
1.848706e+000,-1.242084e-005,1.493921e-005
1.849500e+000,-1.091020e-005,1.493187e-005
1.850294e+000,-1.023880e-005,1.491628e-005
1.851088e+000,-1.225299e-005,1.490675e-005
1.851882e+000,-1.124590e-005,1.490846e-005
1.852676e+000,-1.426719e-005,1.490413e-005
1.853471e+000,-1.292439e-005,1.491316e-005
1.854265e+000,-1.443504e-005,1.491980e-005
1.855059e+000,-1.628138e-005,1.492730e-005
1.855853e+000,-1.695277e-005,1.493956e-005
1.856647e+000,-1.527428e-005,1.495418e-005
1.857441e+000,-9.735256e-006,1.496077e-005
1.858235e+000,-9.567407e-006,1.494919e-005
1.859029e+000,-1.225299e-005,1.493297e-005
1.859824e+000,-1.225299e-005,1.492071e-005
1.860618e+000,-1.225299e-005,1.491292e-005
1.861412e+000,-1.091020e-005,1.490512e-005
1.862206e+000,-1.124590e-005,1.489710e-005
1.863000e+000,-1.191730e-005,1.489182e-005
1.863794e+000,-8.560311e-006,1.489095e-005
1.864588e+000,-1.124590e-005,1.488758e-005
1.865382e+000,-1.359579e-005,1.487933e-005
1.866176e+000,-1.460288e-005,1.486835e-005
1.866971e+000,-1.359579e-005,1.486565e-005
1.867765e+000,-1.292439e-005,1.487632e-005
1.868559e+000,-1.225299e-005,1.488066e-005
1.869353e+000,-1.158160e-005,1.487284e-005
1.870147e+000,-1.258869e-005,1.487366e-005
1.870941e+000,-1.326009e-005,1.487275e-005
1.871735e+000,-1.393149e-005,1.486978e-005
1.872529e+000,-1.426719e-005,1.486666e-005
1.873324e+000,-1.493858e-005,1.486963e-005
1.874118e+000,-1.174945e-005,1.488302e-005
1.874912e+000,-1.359579e-005,1.487898e-005
1.875706e+000,-1.426719e-005,1.486800e-005
1.876500e+000,-1.393149e-005,1.485126e-005
1.877294e+000,-1.124590e-005,1.484246e-005
1.878088e+000,-1.091020e-005,1.482700e-005
1.878882e+000,-9.567407e-006,1.480641e-005
1.879676e+000,-1.091020e-005,1.477615e-005
1.880471e+000,-1.359579e-005,1.475019e-005
1.881265e+000,-1.460288e-005,1.472849e-005
1.882059e+000,-1.493858e-005,1.471535e-005
1.882853e+000,-1.359579e-005,1.470589e-005
1.883647e+000,-1.594568e-005,1.470174e-005
1.884441e+000,-1.560998e-005,1.471301e-005
1.885235e+000,-1.359579e-005,1.472649e-005
1.886029e+000,-1.628138e-005,1.473658e-005
1.886824e+000,-1.930266e-005,1.475388e-005
1.887618e+000,-1.829557e-005,1.477413e-005
1.888412e+000,-1.762417e-005,1.478506e-005
1.889206e+000,-1.963836e-005,1.480233e-005
1.890000e+000,-1.963836e-005,1.482765e-005
1.890794e+000,-2.030976e-005,1.485886e-005
1.891588e+000,-1.493858e-005,1.488948e-005
1.892382e+000,-1.124590e-005,1.488948e-005
1.893176e+000,-1.326009e-005,1.487694e-005
1.893971e+000,-1.728847e-005,1.487397e-005
1.894765e+000,-1.426719e-005,1.487520e-005
1.895559e+000,-1.560998e-005,1.485847e-005
1.896353e+000,-1.376364e-005,1.486067e-005
1.897147e+000,-1.158160e-005,1.486488e-005
1.897941e+000,-1.023880e-005,1.484784e-005
1.898735e+000,-9.735256e-006,1.484470e-005
1.899529e+000,-1.359579e-005,1.483404e-005
1.900324e+000,-1.628138e-005,1.482884e-005
1.901118e+000,-1.829557e-005,1.483842e-005
1.901912e+000,-1.628138e-005,1.486379e-005
1.902706e+000,-1.695277e-005,1.488758e-005
1.903500e+000,-2.098116e-005,1.491046e-005
1.904294e+000,-2.098116e-005,1.494311e-005
1.905088e+000,-1.896696e-005,1.497311e-005
1.905882e+000,-1.896696e-005,1.499538e-005
1.906676e+000,-2.030976e-005,1.502092e-005
1.907471e+000,-1.762417e-005,1.504599e-005
1.908265e+000,-1.896696e-005,1.506465e-005
1.909059e+000,-1.846342e-005,1.508848e-005
1.909853e+000,-2.047761e-005,1.510297e-005
1.910647e+000,-1.493858e-005,1.513132e-005
1.911441e+000,-1.560998e-005,1.513288e-005
1.912235e+000,-1.527428e-005,1.513005e-005
1.913029e+000,-1.225299e-005,1.513005e-005
1.913824e+000,-9.567407e-006,1.512020e-005
1.914618e+000,-9.567407e-006,1.509956e-005
1.915412e+000,-8.560311e-006,1.507389e-005
1.916206e+000,-1.258869e-005,1.506577e-005
1.917000e+000,-1.393149e-005,1.506201e-005
1.917794e+000,-1.443504e-005,1.506793e-005
1.918588e+000,-1.275654e-005,1.507408e-005
1.919382e+000,-1.359579e-005,1.507270e-005
1.920176e+000,-1.493858e-005,1.506648e-005
1.920971e+000,-1.040665e-005,1.506431e-005
1.921765e+000,-1.124590e-005,1.505110e-005
1.922559e+000,-1.225299e-005,1.504492e-005
1.923353e+000,-1.191730e-005,1.504220e-005
1.924147e+000,-1.225299e-005,1.502434e-005
1.924941e+000,-1.023880e-005,1.500979e-005
1.925735e+000,-9.903105e-006,1.499931e-005
1.926529e+000,-1.292439e-005,1.499009e-005
1.927324e+000,-1.158160e-005,1.498413e-005
1.928118e+000,-1.023880e-005,1.498154e-005
1.928912e+000,-1.023880e-005,1.497924e-005
1.929706e+000,-1.225299e-005,1.497924e-005
1.930500e+000,-1.023880e-005,1.498406e-005
1.931294e+000,-1.091020e-005,1.498255e-005
1.932088e+000,-8.896010e-006,1.498406e-005
1.932882e+000,-7.217518e-006,1.498406e-005
1.933676e+000,-6.378271e-006,1.497275e-005
1.934471e+000,-6.881819e-006,1.496022e-005
1.935265e+000,-1.225299e-005,1.494928e-005
1.936059e+000,-1.258869e-005,1.494459e-005
1.936853e+000,-9.567407e-006,1.493662e-005
1.937647e+000,-1.091020e-005,1.492039e-005
1.938441e+000,-1.158160e-005,1.490241e-005
1.939235e+000,-1.326009e-005,1.489601e-005
1.940029e+000,-1.292439e-005,1.490128e-005
1.940824e+000,-1.426719e-005,1.488962e-005
1.941618e+000,-1.359579e-005,1.487816e-005
1.942412e+000,-8.392462e-006,1.487565e-005
1.943206e+000,-6.210422e-006,1.486035e-005
1.944000e+000,-1.258869e-005,1.482792e-005
1.944794e+000,-1.527428e-005,1.480350e-005
1.945588e+000,-1.426719e-005,1.479259e-005
1.946382e+000,-1.728847e-005,1.477577e-005
1.947176e+000,-1.695277e-005,1.476852e-005
1.947971e+000,-1.493858e-005,1.476852e-005
1.948765e+000,-1.560998e-005,1.476280e-005
1.949559e+000,-1.997406e-005,1.475298e-005
1.950353e+000,-1.930266e-005,1.476973e-005
1.951147e+000,-1.930266e-005,1.478306e-005
1.951941e+000,-1.661708e-005,1.479694e-005
1.952735e+000,-1.644922e-005,1.480867e-005
1.953529e+000,-1.426719e-005,1.482496e-005
1.954324e+000,-1.124590e-005,1.483324e-005
1.955118e+000,-1.091020e-005,1.483069e-005
1.955912e+000,-1.124590e-005,1.482907e-005
1.956706e+000,-1.091020e-005,1.482231e-005
1.957500e+000,-1.225299e-005,1.479912e-005
1.958294e+000,-1.242084e-005,1.477655e-005
1.959088e+000,-1.359579e-005,1.474721e-005
1.959882e+000,-1.426719e-005,1.471003e-005
1.960676e+000,-1.695277e-005,1.468128e-005
1.961471e+000,-2.098116e-005,1.466470e-005
1.962265e+000,-2.030976e-005,1.467812e-005
1.963059e+000,-1.661708e-005,1.469410e-005
1.963853e+000,-1.225299e-005,1.469984e-005
1.964647e+000,-4.867628e-006,1.468739e-005
1.965441e+000,1.292439e-005,1.466787e-005
1.966235e+000,2.853437e-006,1.467572e-005
1.967029e+000,-2.719158e-005,1.466484e-005
1.967824e+000,-8.560311e-006,1.472591e-005
1.968618e+000,6.546120e-006,1.470969e-005
1.969412e+000,-1.527428e-005,1.470064e-005
1.970206e+000,-2.232395e-005,1.471599e-005
1.971000e+000,-2.165255e-005,1.476128e-005
1.971794e+000,-3.994812e-005,1.480049e-005
1.972588e+000,-5.992218e-005,1.496214e-005
1.973382e+000,-6.865034e-005,1.533249e-005
1.974176e+000,-4.716563e-005,1.580579e-005
1.974971e+000,-1.225299e-005,1.602048e-005
1.975765e+000,1.460288e-005,1.603304e-005
1.976559e+000,3.541619e-005,1.605078e-005
1.977353e+000,4.179446e-005,1.616961e-005
1.978147e+000,5.488670e-005,1.633517e-005
1.978941e+000,1.292439e-005,1.661619e-005
1.979735e+000,-3.172351e-005,1.661859e-005
1.980529e+000,-5.320821e-005,1.670409e-005
1.981324e+000,-6.999313e-005,1.695773e-005
1.982118e+000,-6.663615e-005,1.739640e-005
1.982912e+000,-5.253681e-005,1.777822e-005
1.983706e+000,-3.860533e-005,1.800490e-005
1.984500e+000,-3.306630e-005,1.812375e-005
1.985294e+000,-2.668803e-005,1.820784e-005
1.986088e+000,-2.165255e-005,1.825056e-005
1.986882e+000,-1.963836e-005,1.827798e-005
1.987676e+000,-1.174945e-006,1.830243e-005
1.988471e+000,-2.668803e-005,1.828484e-005
1.989265e+000,-2.786297e-005,1.832738e-005
1.990059e+000,7.888914e-006,1.836780e-005
1.990853e+000,5.690089e-005,1.835384e-005
1.991647e+000,5.085832e-005,1.861311e-005
1.992441e+000,3.474479e-005,1.879819e-005
1.993235e+000,3.306630e-005,1.886984e-005
1.994029e+000,-5.035477e-007,1.894313e-005
1.994824e+000,-2.836652e-005,1.892982e-005
1.995618e+000,-2.903792e-005,1.898338e-005
1.996412e+000,-1.762417e-005,1.904002e-005
1.997206e+000,-5.539025e-006,1.905411e-005
1.998000e+000,-2.853437e-006,1.904413e-005
1.998794e+000,-4.867628e-006,1.902857e-005
1.999588e+000,-2.030976e-005,1.901431e-005
2.000382e+000,-5.052262e-005,1.902284e-005
2.001176e+000,-4.347295e-005,1.920656e-005
2.001971e+000,-5.052262e-005,1.934256e-005
2.002765e+000,-3.675899e-005,1.953171e-005
2.003559e+000,7.553216e-006,1.961637e-005
2.004353e+000,7.888914e-006,1.959947e-005
2.005147e+000,-1.174945e-006,1.957100e-005
2.005941e+000,-1.560998e-005,1.954386e-005
2.006735e+000,-3.810178e-005,1.953228e-005
2.007529e+000,-3.944457e-005,1.963010e-005
2.008324e+000,-3.675899e-005,1.974380e-005
2.009118e+000,-2.903792e-005,1.983375e-005
2.009912e+000,-1.326009e-005,1.988183e-005
2.010706e+000,-7.553216e-006,1.987555e-005
2.011500e+000,-9.903105e-006,1.986380e-005
2.012294e+000,-1.091020e-005,1.985828e-005
2.013088e+000,-6.881819e-006,1.985578e-005
2.013882e+000,-2.182040e-006,1.984325e-005
2.014676e+000,-8.896010e-006,1.983125e-005
2.015471e+000,-1.393149e-005,1.982419e-005
2.016265e+000,-1.762417e-005,1.982601e-005
2.017059e+000,-1.896696e-005,1.983139e-005
2.017853e+000,-1.829557e-005,1.984315e-005
2.018647e+000,-2.165255e-005,1.985795e-005
2.019441e+000,-2.433814e-005,1.988819e-005
2.020235e+000,-2.165255e-005,1.992356e-005
2.021029e+000,-1.661708e-005,1.995468e-005
2.021824e+000,-1.527428e-005,1.997482e-005
2.022618e+000,-1.426719e-005,1.998963e-005
2.023412e+000,-1.493858e-005,2.000089e-005
2.024206e+000,-1.191730e-005,2.000975e-005
2.025000e+000,-7.217518e-006,2.001099e-005
2.025794e+000,-8.224612e-006,2.000042e-005
2.026588e+000,-5.539025e-006,1.999852e-005
2.027382e+000,-5.539025e-006,1.998900e-005
2.028176e+000,-4.196231e-006,1.996574e-005
2.028971e+000,2.517739e-006,1.994599e-005
2.029765e+000,6.210422e-006,1.992868e-005
2.030559e+000,4.364080e-006,1.991549e-005
2.031353e+000,5.035477e-007,1.989876e-005
2.032147e+000,-4.364080e-006,1.988506e-005
2.032941e+000,-9.567407e-006,1.986870e-005
2.033735e+000,-1.174945e-005,1.984512e-005
2.034529e+000,-1.258869e-005,1.983829e-005
2.035324e+000,-1.292439e-005,1.982973e-005
2.036118e+000,-1.560998e-005,1.981321e-005
2.036912e+000,-1.527428e-005,1.981486e-005
2.037706e+000,-1.661708e-005,1.982625e-005
2.038500e+000,-1.829557e-005,1.983887e-005
2.039294e+000,-1.493858e-005,1.985368e-005
2.040088e+000,-2.030976e-005,1.986203e-005
2.040882e+000,-2.299535e-005,1.988464e-005
2.041676e+000,-1.963836e-005,1.991494e-005
2.042471e+000,-2.433814e-005,1.993441e-005
2.043265e+000,-2.165255e-005,1.996970e-005
2.044059e+000,-2.047761e-005,1.999871e-005
2.044853e+000,-1.762417e-005,2.001946e-005
2.045647e+000,-1.443504e-005,2.003470e-005
2.046441e+000,-1.661708e-005,2.003508e-005
2.047235e+000,-1.661708e-005,2.003848e-005
2.048029e+000,-1.225299e-005,2.003574e-005
2.048824e+000,-1.359579e-005,2.002107e-005
2.049618e+000,-1.158160e-005,2.001381e-005
2.050412e+000,-8.224612e-006,2.000295e-005
2.051206e+000,-8.896010e-006,1.998975e-005
2.052000e+000,-1.091020e-005,1.997984e-005
2.052794e+000,-1.057450e-005,1.997154e-005
2.053588e+000,-2.500954e-005,1.995708e-005
2.054382e+000,-3.709468e-005,1.998404e-005
2.055176e+000,-3.407340e-005,2.006585e-005
2.055971e+000,-2.333104e-005,2.013506e-005
2.056765e+000,-1.359579e-005,2.016005e-005
2.057559e+000,-4.531929e-006,2.015540e-005
2.058353e+000,4.531929e-006,2.014348e-005
2.059147e+000,7.888914e-006,2.013387e-005
2.059941e+000,6.210422e-006,2.012818e-005
2.060735e+000,5.203327e-006,2.011732e-005
2.061529e+000,4.867628e-006,2.010885e-005
2.062324e+000,-2.853437e-006,2.010129e-005
2.063118e+000,-5.539025e-006,2.009069e-005
2.063912e+000,-8.896010e-006,2.008425e-005
2.064706e+000,-1.359579e-005,2.008109e-005
2.065500e+000,-1.594568e-005,2.008216e-005
2.066294e+000,-1.829557e-005,2.008618e-005
2.067088e+000,-1.896696e-005,2.006767e-005
2.067882e+000,-1.628138e-005,2.004039e-005
2.068676e+000,-1.560998e-005,2.001437e-005
2.069471e+000,-2.114900e-005,1.996661e-005
2.070265e+000,-2.232395e-005,1.995240e-005
2.071059e+000,-2.635233e-005,1.998674e-005
2.071853e+000,-2.769513e-005,2.004188e-005
2.072647e+000,-2.584878e-005,2.009693e-005
2.073441e+000,-2.517739e-005,2.014957e-005
2.074235e+000,-2.098116e-005,2.019863e-005
2.075029e+000,-2.568093e-005,2.023293e-005
2.075824e+000,-2.870222e-005,2.028174e-005
2.076618e+000,-2.232395e-005,2.033581e-005
2.077412e+000,-1.661708e-005,2.035051e-005
2.078206e+000,-1.863127e-005,2.033193e-005
2.079000e+000,-1.225299e-005,2.034735e-005
2.079794e+000,-7.721065e-006,2.034735e-005
2.080588e+000,-7.888914e-006,2.035085e-005
2.081382e+000,-5.539025e-006,2.034461e-005
2.082176e+000,-1.225299e-005,2.030313e-005
2.082971e+000,-1.762417e-005,2.019048e-005
2.083765e+000,-2.098116e-005,2.005373e-005
2.084559e+000,-2.098116e-005,1.997325e-005
2.085353e+000,-2.165255e-005,1.993472e-005
2.086147e+000,-2.467384e-005,1.993236e-005
2.086941e+000,-2.165255e-005,1.994804e-005
2.087735e+000,-1.493858e-005,1.995199e-005
2.088529e+000,-1.309224e-005,1.994864e-005
2.089324e+000,-1.292439e-005,1.994411e-005
2.090118e+000,-3.692683e-006,1.994546e-005
2.090912e+000,5.035477e-007,1.992872e-005
2.091706e+000,-1.174945e-006,1.990576e-005
2.092500e+000,-7.217518e-006,1.989515e-005
2.093294e+000,-7.553216e-006,1.988979e-005
2.094088e+000,-6.378271e-006,1.988362e-005
2.094882e+000,-4.867628e-006,1.987848e-005
2.095676e+000,-5.539025e-006,1.987024e-005
2.096471e+000,-9.735256e-006,1.986853e-005
2.097265e+000,-1.158160e-005,1.987233e-005
2.098059e+000,-1.258869e-005,1.987574e-005
2.098853e+000,-1.493858e-005,1.987608e-005
2.099647e+000,-1.191730e-005,1.988442e-005
2.100441e+000,-1.091020e-005,1.988739e-005
2.101235e+000,-1.225299e-005,1.988490e-005
2.102029e+000,-1.225299e-005,1.988680e-005
2.102824e+000,-1.628138e-005,1.988252e-005
2.103618e+000,-1.863127e-005,1.989037e-005
2.104412e+000,-2.668803e-005,1.990148e-005
2.105206e+000,-4.867628e-006,1.993722e-005
2.106000e+000,3.256275e-005,1.991615e-005
2.106794e+000,3.743038e-005,1.998216e-005
2.107588e+000,1.728847e-005,2.008599e-005
2.108382e+000,-5.539025e-006,2.010242e-005
2.109176e+000,-2.635233e-005,2.009296e-005
2.109971e+000,-5.387960e-005,2.013605e-005
2.110765e+000,-7.536431e-005,2.035258e-005
2.111559e+000,-7.435722e-005,2.078309e-005
2.112353e+000,-7.637141e-005,2.119298e-005
2.113147e+000,-6.764325e-005,2.161632e-005
2.113941e+000,-3.776608e-005,2.194547e-005
2.114735e+000,-1.292439e-005,2.203959e-005
2.115529e+000,5.203327e-006,2.203830e-005
2.116324e+000,1.997406e-005,2.202484e-005
2.117118e+000,1.795987e-005,2.204032e-005
2.117912e+000,1.359579e-005,2.205155e-005
2.118706e+000,5.874723e-006,2.205406e-005
2.119500e+000,2.517739e-006,2.204686e-005
2.120294e+000,-3.021286e-006,2.203587e-005
2.121088e+000,-1.124590e-005,2.202382e-005
2.121882e+000,-1.225299e-005,2.201893e-005
2.122676e+000,-1.493858e-005,2.201507e-005
2.123471e+000,-1.124590e-005,2.201507e-005
2.124265e+000,-6.378271e-006,2.201423e-005
2.125059e+000,-6.881819e-006,2.200380e-005
2.125853e+000,-6.210422e-006,2.199249e-005
2.126647e+000,-5.874723e-006,2.198123e-005
2.127441e+000,-7.888914e-006,2.197457e-005
2.128235e+000,-7.553216e-006,2.197045e-005
2.129029e+000,-1.628138e-005,2.196795e-005
2.129824e+000,-1.829557e-005,2.197854e-005
2.130618e+000,-1.829557e-005,2.198939e-005
2.131412e+000,-1.795987e-005,2.199819e-005
2.132206e+000,-1.695277e-005,2.200538e-005
2.133000e+000,-1.594568e-005,2.201280e-005
2.133794e+000,-2.366674e-005,2.201280e-005
2.134588e+000,-3.054856e-005,2.203568e-005
2.135382e+000,-3.105211e-005,2.208969e-005
2.136176e+000,-2.870222e-005,2.214003e-005
2.136971e+000,-3.105211e-005,2.217246e-005
2.137765e+000,-2.467384e-005,2.221763e-005
2.138559e+000,-1.493858e-005,2.223899e-005
2.139353e+000,-8.560311e-006,2.222735e-005
2.140147e+000,-2.182040e-006,2.220496e-005
2.140941e+000,-2.853437e-006,2.217570e-005
2.141735e+000,-2.853437e-006,2.216025e-005
2.142529e+000,2.349889e-006,2.215175e-005
2.143324e+000,3.189136e-006,2.213950e-005
2.144118e+000,-1.510643e-006,2.211873e-005
2.144912e+000,-6.881819e-006,2.210424e-005
2.145706e+000,-8.896010e-006,2.209009e-005
2.146500e+000,-9.903105e-006,2.208214e-005
2.147294e+000,-1.863127e-005,2.207954e-005
2.148088e+000,-2.433814e-005,2.209700e-005
2.148882e+000,-2.618448e-005,2.213283e-005
2.149676e+000,-2.903792e-005,2.216883e-005
2.150471e+000,-2.652018e-005,2.221032e-005
2.151265e+000,-2.433814e-005,2.223673e-005
2.152059e+000,-1.795987e-005,2.226015e-005
2.152853e+000,-1.829557e-005,2.226266e-005
2.153647e+000,-3.709468e-005,2.225512e-005
2.154441e+000,-3.189136e-005,2.232197e-005
2.155235e+000,1.158160e-005,2.236881e-005
2.156029e+000,4.145876e-005,2.235275e-005
2.156824e+000,2.333104e-005,2.244561e-005
2.157618e+000,1.124590e-005,2.246219e-005
2.158412e+000,-1.393149e-005,2.244565e-005
2.159206e+000,-3.373770e-005,2.243523e-005
2.160000e+000,-3.138781e-005,2.248620e-005
2.160794e+000,-4.985122e-005,2.254009e-005
2.161588e+000,-9.248493e-005,2.269789e-005
2.162382e+000,-1.000381e-004,2.327427e-005
2.163176e+000,-9.617762e-005,2.393919e-005
2.163971e+000,-6.478981e-005,2.454083e-005
2.164765e+000,9.231709e-006,2.480583e-005
2.165559e+000,1.829557e-005,2.480660e-005
2.166353e+000,3.038071e-005,2.481791e-005
2.167147e+000,3.978027e-005,2.486464e-005
2.167941e+000,3.541619e-005,2.495248e-005
2.168735e+000,5.152972e-005,2.502204e-005
2.169529e+000,7.368582e-005,2.517877e-005
2.170324e+000,6.764325e-005,2.550591e-005
2.171118e+000,2.803082e-005,2.578330e-005
2.171912e+000,-8.896010e-006,2.582398e-005
2.172706e+000,-3.239490e-005,2.581961e-005
2.173500e+000,-3.709468e-005,2.587551e-005
2.174294e+000,-2.568093e-005,2.595084e-005
2.175088e+000,-1.779202e-005,2.598485e-005
2.175882e+000,-2.064546e-005,2.599824e-005
2.176676e+000,-2.433814e-005,2.601411e-005
2.177471e+000,-2.265965e-005,2.604214e-005
2.178265e+000,-2.064546e-005,2.606711e-005
2.179059e+000,-2.299535e-005,2.608674e-005
2.179853e+000,-2.333104e-005,2.610984e-005
2.180647e+000,-2.568093e-005,2.613663e-005
2.181441e+000,-2.165255e-005,2.616954e-005
2.182235e+000,-1.963836e-005,2.619324e-005
2.183029e+000,-2.131685e-005,2.621351e-005
2.183824e+000,-1.896696e-005,2.623863e-005
2.184618e+000,-2.198825e-005,2.625758e-005
2.185412e+000,-2.098116e-005,2.627779e-005
2.186206e+000,-1.829557e-005,2.629486e-005
2.187000e+000,-1.980621e-005,2.630958e-005
2.187794e+000,-2.030976e-005,2.632611e-005
2.188588e+000,-1.829557e-005,2.634294e-005
2.189382e+000,-1.594568e-005,2.635255e-005
2.190176e+000,-1.980621e-005,2.635781e-005
2.190971e+000,-2.064546e-005,2.636921e-005
2.191765e+000,-1.661708e-005,2.638379e-005
2.192559e+000,-1.359579e-005,2.639620e-005
2.193353e+000,-1.091020e-005,2.640502e-005
2.194147e+000,-4.867628e-006,2.640264e-005
2.194941e+000,-3.524834e-006,2.639000e-005
2.195735e+000,-1.174945e-005,2.637846e-005
2.196529e+000,-1.359579e-005,2.636875e-005
2.197324e+000,-1.896696e-005,2.636256e-005
2.198118e+000,-2.265965e-005,2.637081e-005
2.198912e+000,-2.249180e-005,2.638709e-005
2.199706e+000,-2.131685e-005,2.639354e-005
2.200500e+000,-1.896696e-005,2.639848e-005
2.201294e+000,-1.913481e-005,2.639771e-005
2.202088e+000,-2.030976e-005,2.640313e-005
2.202882e+000,-2.601663e-005,2.641169e-005
2.203676e+000,-2.769513e-005,2.644021e-005
2.204471e+000,-2.467384e-005,2.647876e-005
2.205265e+000,-1.628138e-005,2.650820e-005
2.206059e+000,-9.903105e-006,2.651652e-005
2.206853e+000,-8.224612e-006,2.651526e-005
2.207647e+000,-5.874723e-006,2.651031e-005
2.208441e+000,-2.853437e-006,2.650311e-005
2.209235e+000,-4.196231e-006,2.649249e-005
2.210029e+000,-8.392462e-007,2.648132e-005
2.210824e+000,-1.846342e-006,2.646407e-005
2.211618e+000,-4.196231e-006,2.643778e-005
2.212412e+000,-5.874723e-006,2.641398e-005
2.213206e+000,-5.874723e-006,2.639941e-005
2.214000e+000,-1.225299e-005,2.639244e-005
2.214794e+000,-2.467384e-005,2.640006e-005
2.215588e+000,-3.340200e-005,2.642670e-005
2.216382e+000,-2.769513e-005,2.649335e-005
2.217176e+000,-2.030976e-005,2.649501e-005
