X [s],L BICEPS BRACHII: EMG 4 [V],L BICEPS BRACHII: EMG 4->filter (FilterSlidingRMS33) [V]
0.000000e+000,0.000000e+000,0.000000e+000
7.941176e-004,0.000000e+000,0.000000e+000
1.588235e-003,0.000000e+000,0.000000e+000
2.382353e-003,0.000000e+000,0.000000e+000
3.176471e-003,0.000000e+000,0.000000e+000
3.970588e-003,0.000000e+000,0.000000e+000
4.764706e-003,0.000000e+000,0.000000e+000
5.558824e-003,0.000000e+000,0.000000e+000
6.352941e-003,0.000000e+000,0.000000e+000
7.147059e-003,0.000000e+000,0.000000e+000
7.941176e-003,0.000000e+000,0.000000e+000
8.735294e-003,0.000000e+000,0.000000e+000
9.529412e-003,0.000000e+000,0.000000e+000
1.032353e-002,0.000000e+000,0.000000e+000
1.111765e-002,0.000000e+000,0.000000e+000
1.191176e-002,0.000000e+000,0.000000e+000
1.270588e-002,0.000000e+000,0.000000e+000
1.350000e-002,0.000000e+000,0.000000e+000
1.429412e-002,0.000000e+000,0.000000e+000
1.508824e-002,0.000000e+000,0.000000e+000
1.588235e-002,0.000000e+000,0.000000e+000
1.667647e-002,0.000000e+000,0.000000e+000
1.747059e-002,0.000000e+000,0.000000e+000
1.826471e-002,0.000000e+000,0.000000e+000
1.905882e-002,0.000000e+000,0.000000e+000
1.985294e-002,0.000000e+000,0.000000e+000
2.064706e-002,0.000000e+000,0.000000e+000
2.144118e-002,0.000000e+000,0.000000e+000
2.223529e-002,0.000000e+000,0.000000e+000
2.302941e-002,0.000000e+000,0.000000e+000
2.382353e-002,0.000000e+000,0.000000e+000
2.461765e-002,0.000000e+000,0.000000e+000
2.541176e-002,0.000000e+000,0.000000e+000
2.620588e-002,0.000000e+000,0.000000e+000
2.700000e-002,0.000000e+000,0.000000e+000
2.779412e-002,0.000000e+000,0.000000e+000
2.858824e-002,0.000000e+000,0.000000e+000
2.938235e-002,0.000000e+000,0.000000e+000
3.017647e-002,0.000000e+000,0.000000e+000
3.097059e-002,0.000000e+000,0.000000e+000
3.176471e-002,0.000000e+000,0.000000e+000
3.255882e-002,0.000000e+000,0.000000e+000
3.335294e-002,0.000000e+000,0.000000e+000
3.414706e-002,0.000000e+000,0.000000e+000
3.494118e-002,0.000000e+000,0.000000e+000
3.573529e-002,0.000000e+000,0.000000e+000
3.652941e-002,0.000000e+000,0.000000e+000
3.732353e-002,0.000000e+000,0.000000e+000
3.811765e-002,0.000000e+000,0.000000e+000
3.891176e-002,0.000000e+000,0.000000e+000
3.970588e-002,0.000000e+000,0.000000e+000
4.050000e-002,0.000000e+000,0.000000e+000
4.129412e-002,0.000000e+000,0.000000e+000
4.208824e-002,0.000000e+000,0.000000e+000
4.288235e-002,0.000000e+000,0.000000e+000
4.367647e-002,0.000000e+000,0.000000e+000
4.447059e-002,0.000000e+000,0.000000e+000
4.526471e-002,0.000000e+000,0.000000e+000
4.605882e-002,0.000000e+000,0.000000e+000
4.685294e-002,0.000000e+000,0.000000e+000
4.764706e-002,0.000000e+000,0.000000e+000
4.844118e-002,0.000000e+000,0.000000e+000
4.923529e-002,0.000000e+000,0.000000e+000
5.002941e-002,0.000000e+000,0.000000e+000
5.082353e-002,0.000000e+000,0.000000e+000
5.161765e-002,0.000000e+000,0.000000e+000
5.241176e-002,0.000000e+000,0.000000e+000
5.320588e-002,0.000000e+000,0.000000e+000
5.400000e-002,0.000000e+000,0.000000e+000
5.479412e-002,0.000000e+000,0.000000e+000
5.558824e-002,0.000000e+000,0.000000e+000
5.638235e-002,0.000000e+000,0.000000e+000
5.717647e-002,0.000000e+000,0.000000e+000
5.797059e-002,0.000000e+000,0.000000e+000
5.876471e-002,0.000000e+000,0.000000e+000
5.955882e-002,0.000000e+000,0.000000e+000
6.035294e-002,0.000000e+000,0.000000e+000
6.114706e-002,0.000000e+000,0.000000e+000
6.194118e-002,0.000000e+000,0.000000e+000
6.273529e-002,0.000000e+000,0.000000e+000
6.352941e-002,0.000000e+000,0.000000e+000
6.432353e-002,0.000000e+000,0.000000e+000
6.511765e-002,0.000000e+000,0.000000e+000
6.591176e-002,0.000000e+000,0.000000e+000
6.670588e-002,0.000000e+000,0.000000e+000
6.750000e-002,0.000000e+000,0.000000e+000
6.829412e-002,0.000000e+000,0.000000e+000
6.908824e-002,0.000000e+000,0.000000e+000
6.988235e-002,0.000000e+000,0.000000e+000
7.067647e-002,0.000000e+000,0.000000e+000
7.147059e-002,0.000000e+000,0.000000e+000
7.226471e-002,0.000000e+000,0.000000e+000
7.305882e-002,0.000000e+000,0.000000e+000
7.385294e-002,0.000000e+000,0.000000e+000
7.464706e-002,0.000000e+000,0.000000e+000
7.544118e-002,0.000000e+000,0.000000e+000
7.623529e-002,0.000000e+000,0.000000e+000
7.702941e-002,0.000000e+000,0.000000e+000
7.782353e-002,0.000000e+000,0.000000e+000
7.861765e-002,0.000000e+000,0.000000e+000
7.941176e-002,0.000000e+000,0.000000e+000
8.020588e-002,0.000000e+000,0.000000e+000
8.100000e-002,0.000000e+000,0.000000e+000
8.179412e-002,0.000000e+000,0.000000e+000
8.258824e-002,0.000000e+000,0.000000e+000
8.338235e-002,0.000000e+000,0.000000e+000
8.417647e-002,0.000000e+000,0.000000e+000
8.497059e-002,0.000000e+000,0.000000e+000
8.576471e-002,0.000000e+000,0.000000e+000
8.655882e-002,0.000000e+000,0.000000e+000
8.735294e-002,0.000000e+000,0.000000e+000
8.814706e-002,0.000000e+000,0.000000e+000
8.894118e-002,0.000000e+000,0.000000e+000
8.973529e-002,0.000000e+000,0.000000e+000
9.052941e-002,0.000000e+000,0.000000e+000
9.132353e-002,0.000000e+000,0.000000e+000
9.211765e-002,0.000000e+000,0.000000e+000
9.291176e-002,0.000000e+000,0.000000e+000
9.370588e-002,0.000000e+000,0.000000e+000
9.450000e-002,-1.023880e-005,0.000000e+000
9.529412e-002,-4.196231e-006,0.000000e+000
9.608824e-002,-1.846342e-006,0.000000e+000
9.688235e-002,5.035477e-007,0.000000e+000
9.767647e-002,1.174945e-006,0.000000e+000
9.847059e-002,-3.021286e-006,0.000000e+000
9.926471e-002,-7.888914e-006,0.000000e+000
1.000588e-001,-7.721065e-006,0.000000e+000
1.008529e-001,-1.124590e-005,0.000000e+000
1.016471e-001,-1.191730e-005,0.000000e+000
1.024412e-001,-1.225299e-005,0.000000e+000
1.032353e-001,-1.359579e-005,0.000000e+000
1.040294e-001,-1.544213e-005,0.000000e+000
1.048235e-001,-1.393149e-005,0.000000e+000
1.056176e-001,-1.628138e-005,0.000000e+000
1.064118e-001,-1.762417e-005,0.000000e+000
1.072059e-001,-1.963836e-005,0.000000e+000
1.080000e-001,-1.829557e-005,0.000000e+000
1.087941e-001,-1.460288e-005,0.000000e+000
1.095882e-001,-1.560998e-005,0.000000e+000
1.103824e-001,-1.762417e-005,0.000000e+000
1.111765e-001,-1.393149e-005,0.000000e+000
1.119706e-001,-1.560998e-005,0.000000e+000
1.127647e-001,-1.594568e-005,0.000000e+000
1.135588e-001,-1.426719e-005,0.000000e+000
1.143529e-001,-1.527428e-005,0.000000e+000
1.151471e-001,-1.628138e-005,0.000000e+000
1.159412e-001,-1.527428e-005,0.000000e+000
1.167353e-001,-1.359579e-005,0.000000e+000
1.175294e-001,-1.292439e-005,0.000000e+000
1.183235e-001,-8.560311e-006,0.000000e+000
1.191176e-001,-9.567407e-006,0.000000e+000
1.199118e-001,-1.359579e-005,0.000000e+000
1.207059e-001,-1.158160e-005,0.000000e+000
1.215000e-001,-1.309224e-005,0.000000e+000
1.222941e-001,-1.409934e-005,0.000000e+000
1.230882e-001,-1.225299e-005,0.000000e+000
1.238824e-001,-1.124590e-005,0.000000e+000
1.246765e-001,-1.258869e-005,0.000000e+000
1.254706e-001,-1.124590e-005,0.000000e+000
1.262647e-001,-1.225299e-005,0.000000e+000
1.270588e-001,-1.091020e-005,0.000000e+000
1.278529e-001,-1.258869e-005,0.000000e+000
1.286471e-001,-8.896010e-006,0.000000e+000
1.294412e-001,-1.124590e-005,0.000000e+000
1.302353e-001,-8.896010e-006,0.000000e+000
1.310294e-001,-9.903105e-006,0.000000e+000
1.318235e-001,-1.225299e-005,0.000000e+000
1.326176e-001,-1.174945e-005,0.000000e+000
1.334118e-001,-1.023880e-005,0.000000e+000
1.342059e-001,-7.553216e-006,0.000000e+000
1.350000e-001,-1.091020e-005,0.000000e+000
1.357941e-001,-1.258869e-005,0.000000e+000
1.365882e-001,-1.225299e-005,0.000000e+000
1.373824e-001,-1.191730e-005,0.000000e+000
1.381765e-001,-9.567407e-006,0.000000e+000
1.389706e-001,-6.881819e-006,0.000000e+000
1.397647e-001,-7.217518e-006,0.000000e+000
1.405588e-001,-7.553216e-006,0.000000e+000
1.413529e-001,-6.881819e-006,0.000000e+000
1.421471e-001,-9.231709e-006,0.000000e+000
1.429412e-001,-8.224612e-006,0.000000e+000
1.437353e-001,-6.210422e-006,0.000000e+000
1.445294e-001,-6.042573e-006,0.000000e+000
1.453235e-001,-8.224612e-006,0.000000e+000
1.461176e-001,-1.091020e-005,0.000000e+000
1.469118e-001,-1.023880e-005,0.000000e+000
1.477059e-001,-8.392462e-006,0.000000e+000
1.485000e-001,-8.560311e-006,0.000000e+000
1.492941e-001,-1.023880e-005,0.000000e+000
1.500882e-001,-1.091020e-005,0.000000e+000
1.508824e-001,-1.426719e-005,0.000000e+000
1.516765e-001,-1.493858e-005,0.000000e+000
1.524706e-001,-1.225299e-005,0.000000e+000
1.532647e-001,-1.628138e-005,0.000000e+000
1.540588e-001,-1.728847e-005,0.000000e+000
1.548529e-001,-1.493858e-005,0.000000e+000
1.556471e-001,-1.560998e-005,0.000000e+000
1.564412e-001,-1.359579e-005,0.000000e+000
1.572353e-001,-1.292439e-005,0.000000e+000
1.580294e-001,-1.292439e-005,0.000000e+000
1.588235e-001,-1.225299e-005,0.000000e+000
1.596176e-001,-9.903105e-006,0.000000e+000
1.604118e-001,-1.040665e-005,0.000000e+000
1.612059e-001,-9.567407e-006,0.000000e+000
1.620000e-001,-1.158160e-005,0.000000e+000
1.627941e-001,-1.527428e-005,0.000000e+000
1.635882e-001,-1.560998e-005,0.000000e+000
1.643824e-001,-1.309224e-005,0.000000e+000
1.651765e-001,-1.493858e-005,0.000000e+000
1.659706e-001,-1.661708e-005,0.000000e+000
1.667647e-001,-1.359579e-005,0.000000e+000
1.675588e-001,-1.493858e-005,0.000000e+000
1.683529e-001,-1.577783e-005,0.000000e+000
1.691471e-001,-1.762417e-005,0.000000e+000
1.699412e-001,-1.863127e-005,0.000000e+000
1.707353e-001,-1.829557e-005,0.000000e+000
1.715294e-001,-2.064546e-005,0.000000e+000
1.723235e-001,-1.762417e-005,0.000000e+000
1.731176e-001,-1.560998e-005,0.000000e+000
1.739118e-001,-1.426719e-005,0.000000e+000
1.747059e-001,-1.091020e-005,0.000000e+000
1.755000e-001,-1.091020e-005,0.000000e+000
1.762941e-001,-1.493858e-005,0.000000e+000
1.770882e-001,-1.124590e-005,0.000000e+000
1.778824e-001,-8.224612e-006,0.000000e+000
1.786765e-001,-6.210422e-006,0.000000e+000
1.794706e-001,-8.392462e-006,0.000000e+000
1.802647e-001,-1.023880e-005,0.000000e+000
1.810588e-001,-1.225299e-005,0.000000e+000
1.818529e-001,-1.426719e-005,0.000000e+000
1.826471e-001,-1.376364e-005,0.000000e+000
1.834412e-001,-1.359579e-005,0.000000e+000
1.842353e-001,-1.292439e-005,0.000000e+000
1.850294e-001,-1.527428e-005,0.000000e+000
1.858235e-001,-1.493858e-005,0.000000e+000
1.866176e-001,-1.359579e-005,0.000000e+000
1.874118e-001,-1.158160e-005,0.000000e+000
1.882059e-001,-1.527428e-005,0.000000e+000
1.890000e-001,-2.030976e-005,0.000000e+000
1.897941e-001,-1.795987e-005,0.000000e+000
1.905882e-001,-1.896696e-005,0.000000e+000
1.913824e-001,-1.493858e-005,0.000000e+000
1.921765e-001,-1.460288e-005,0.000000e+000
1.929706e-001,-1.426719e-005,0.000000e+000
1.937647e-001,-1.225299e-005,0.000000e+000
1.945588e-001,-1.292439e-005,0.000000e+000
1.953529e-001,-1.409934e-005,0.000000e+000
1.961471e-001,-1.560998e-005,0.000000e+000
1.969412e-001,-1.762417e-005,0.000000e+000
1.977353e-001,-1.728847e-005,0.000000e+000
1.985294e-001,-1.493858e-005,0.000000e+000
1.993235e-001,-1.191730e-005,0.000000e+000
2.001176e-001,-1.225299e-005,0.000000e+000
2.009118e-001,-1.292439e-005,0.000000e+000
2.017059e-001,-1.359579e-005,0.000000e+000
2.025000e-001,-1.158160e-005,0.000000e+000
2.032941e-001,-8.896010e-006,0.000000e+000
2.040882e-001,-1.158160e-005,0.000000e+000
2.048824e-001,-1.728847e-005,0.000000e+000
2.056765e-001,-1.896696e-005,0.000000e+000
2.064706e-001,-1.493858e-005,0.000000e+000
2.072647e-001,-1.493858e-005,0.000000e+000
2.080588e-001,-1.527428e-005,0.000000e+000
2.088529e-001,-1.493858e-005,0.000000e+000
2.096471e-001,-1.393149e-005,0.000000e+000
2.104412e-001,-9.903105e-006,0.000000e+000
2.112353e-001,-1.023880e-005,0.000000e+000
2.120294e-001,-1.225299e-005,0.000000e+000
2.128235e-001,-9.735256e-006,0.000000e+000
2.136176e-001,-1.292439e-005,0.000000e+000
2.144118e-001,-1.309224e-005,0.000000e+000
2.152059e-001,-7.553216e-006,0.000000e+000
2.160000e-001,-8.224612e-006,0.000000e+000
2.167941e-001,-7.721065e-006,0.000000e+000
2.175882e-001,-8.896010e-006,0.000000e+000
2.183824e-001,-1.023880e-005,0.000000e+000
2.191765e-001,-1.124590e-005,0.000000e+000
2.199706e-001,-1.426719e-005,0.000000e+000
2.207647e-001,-1.326009e-005,0.000000e+000
2.215588e-001,-1.258869e-005,0.000000e+000
2.223529e-001,-1.292439e-005,0.000000e+000
2.231471e-001,-1.359579e-005,0.000000e+000
2.239412e-001,-1.158160e-005,0.000000e+000
2.247353e-001,-1.124590e-005,0.000000e+000
2.255294e-001,-9.567407e-006,0.000000e+000
2.263235e-001,-4.196231e-006,0.000000e+000
2.271176e-001,-4.196231e-006,0.000000e+000
2.279118e-001,-2.853437e-006,0.000000e+000
2.287059e-001,-4.196231e-006,0.000000e+000
2.295000e-001,-4.867628e-006,0.000000e+000
2.302941e-001,-4.867628e-006,0.000000e+000
2.310882e-001,-6.881819e-006,0.000000e+000
2.318824e-001,-6.881819e-006,0.000000e+000
2.326765e-001,-8.224612e-006,0.000000e+000
2.334706e-001,-8.896010e-006,0.000000e+000
2.342647e-001,-9.231709e-006,0.000000e+000
2.350588e-001,-8.896010e-006,0.000000e+000
2.358529e-001,-1.191730e-005,0.000000e+000
2.366471e-001,-1.426719e-005,0.000000e+000
2.374412e-001,-1.493858e-005,0.000000e+000
2.382353e-001,-1.795987e-005,0.000000e+000
2.390294e-001,-2.030976e-005,0.000000e+000
2.398235e-001,-1.762417e-005,0.000000e+000
2.406176e-001,-1.493858e-005,0.000000e+000
2.414118e-001,-1.628138e-005,0.000000e+000
2.422059e-001,-1.712062e-005,0.000000e+000
2.430000e-001,-1.661708e-005,0.000000e+000
2.437941e-001,-1.527428e-005,0.000000e+000
2.445882e-001,-1.359579e-005,0.000000e+000
2.453824e-001,-1.124590e-005,0.000000e+000
2.461765e-001,-1.023880e-005,0.000000e+000
2.469706e-001,-6.210422e-006,0.000000e+000
2.477647e-001,-5.706874e-006,0.000000e+000
2.485588e-001,-5.874723e-006,0.000000e+000
2.493529e-001,-5.874723e-006,1.005817e-005
2.501471e-001,-4.364080e-006,1.006363e-005
2.509412e-001,-4.531929e-006,1.006665e-005
2.517353e-001,-7.553216e-006,1.006989e-005
2.525294e-001,-6.881819e-006,1.007891e-005
2.533235e-001,-7.553216e-006,1.008639e-005
2.541176e-001,-7.553216e-006,1.009539e-005
2.549118e-001,-1.091020e-005,1.010439e-005
2.557059e-001,-1.292439e-005,1.012313e-005
2.565000e-001,-1.728847e-005,1.014937e-005
2.572941e-001,-1.795987e-005,1.019616e-005
2.580882e-001,-1.527428e-005,1.024641e-005
2.588824e-001,-1.644922e-005,1.028260e-005
2.596765e-001,-1.930266e-005,1.032442e-005
2.604706e-001,-1.560998e-005,1.038172e-005
2.612647e-001,-1.225299e-005,1.041903e-005
2.620588e-001,-1.594568e-005,1.044195e-005
2.628529e-001,-1.896696e-005,1.048065e-005
2.636471e-001,-1.695277e-005,1.053517e-005
2.644412e-001,-2.198825e-005,1.057852e-005
2.652353e-001,-1.913481e-005,1.065105e-005
2.660294e-001,-1.896696e-005,1.070565e-005
2.668235e-001,-1.829557e-005,1.075902e-005
2.676176e-001,-1.644922e-005,1.080845e-005
2.684118e-001,-1.493858e-005,1.084824e-005
2.692059e-001,-1.359579e-005,1.088094e-005
2.700000e-001,-1.091020e-005,1.090796e-005
2.707941e-001,-9.903105e-006,1.092532e-005
2.715882e-001,-1.023880e-005,1.093961e-005
2.723824e-001,-6.881819e-006,1.095486e-005
2.731765e-001,-9.231709e-006,1.096174e-005
2.739706e-001,-8.560311e-006,1.097411e-005
2.747647e-001,-7.553216e-006,1.098474e-005
2.755588e-001,-1.091020e-005,1.099301e-005
2.763529e-001,-1.158160e-005,1.101024e-005
2.771471e-001,-1.292439e-005,1.102962e-005
2.779412e-001,-1.426719e-005,1.105371e-005
2.787353e-001,-1.158160e-005,1.108299e-005
2.795294e-001,-1.091020e-005,1.110225e-005
2.803235e-001,-1.057450e-005,1.111931e-005
2.811176e-001,-1.225299e-005,1.113531e-005
2.819118e-001,-6.881819e-006,1.115676e-005
2.827059e-001,-9.231709e-006,1.116351e-005
2.835000e-001,-1.091020e-005,1.117566e-005
2.842941e-001,-1.225299e-005,1.119261e-005
2.850882e-001,-1.225299e-005,1.121395e-005
2.858824e-001,-1.359579e-005,1.123525e-005
2.866765e-001,-1.258869e-005,1.126142e-005
2.874706e-001,-1.258869e-005,1.128380e-005
2.882647e-001,-1.527428e-005,1.130614e-005
2.890588e-001,-1.443504e-005,1.133896e-005
2.898529e-001,-1.393149e-005,1.136818e-005
2.906471e-001,-1.158160e-005,1.139533e-005
2.914412e-001,-1.091020e-005,1.141406e-005
2.922353e-001,-1.225299e-005,1.143065e-005
2.930294e-001,-1.460288e-005,1.145155e-005
2.938235e-001,-1.258869e-005,1.148116e-005
2.946176e-001,-1.023880e-005,1.150312e-005
2.954118e-001,-8.224612e-006,1.151763e-005
2.962059e-001,-8.224612e-006,1.152697e-005
2.970000e-001,-8.560311e-006,1.153632e-005
2.977941e-001,-8.896010e-006,1.154643e-005
2.985882e-001,-8.896010e-006,1.155733e-005
2.993824e-001,-7.553216e-006,1.156823e-005
3.001765e-001,-5.539025e-006,1.157608e-005
3.009706e-001,-8.560311e-006,1.158030e-005
3.017647e-001,-1.023880e-005,1.159038e-005
3.025588e-001,-9.735256e-006,1.160477e-005
3.033529e-001,-8.224612e-006,1.161777e-005
3.041471e-001,-3.524834e-006,1.162703e-005
3.049412e-001,-7.888914e-006,1.162874e-005
3.057353e-001,-1.292439e-005,1.163725e-005
3.065294e-001,-1.258869e-005,1.166009e-005
3.073235e-001,-1.191730e-005,1.168171e-005
3.081176e-001,-1.359579e-005,1.170105e-005
3.089118e-001,-1.493858e-005,1.172618e-005
3.097059e-001,-1.225299e-005,1.175645e-005
3.105000e-001,-1.493858e-005,1.177676e-005
3.112941e-001,-1.594568e-005,1.180690e-005
3.120882e-001,-1.560998e-005,1.184114e-005
3.128824e-001,-1.560998e-005,1.187387e-005
3.136765e-001,-1.795987e-005,1.190650e-005
3.144706e-001,-1.829557e-005,1.194956e-005
3.152647e-001,-1.628138e-005,1.199408e-005
3.160588e-001,-1.292439e-005,1.202922e-005
3.168529e-001,-9.567407e-006,1.205131e-005
3.176471e-001,-8.224612e-006,1.206340e-005
3.184412e-001,-9.063859e-006,1.207233e-005
3.192353e-001,-1.091020e-005,1.208316e-005
3.200294e-001,-9.231709e-006,1.209883e-005
3.208235e-001,-9.231709e-006,1.211005e-005
3.216176e-001,-1.091020e-005,1.212125e-005
3.224118e-001,-1.292439e-005,1.213687e-005
3.232059e-001,-1.628138e-005,1.215877e-005
3.240000e-001,-1.393149e-005,1.219344e-005
3.247941e-001,-1.309224e-005,1.221876e-005
3.255882e-001,-1.158160e-005,1.224107e-005
3.263824e-001,-1.225299e-005,1.225851e-005
3.271765e-001,-1.527428e-005,1.227800e-005
3.279706e-001,-1.493858e-005,1.230822e-005
3.287647e-001,-1.443504e-005,1.233706e-005
3.295588e-001,-1.560998e-005,1.236392e-005
3.303529e-001,-1.426719e-005,1.239526e-005
3.311471e-001,-1.527428e-005,1.242138e-005
3.319412e-001,-1.493858e-005,1.245126e-005
3.327353e-001,-1.560998e-005,1.247976e-005
3.335294e-001,-1.728847e-005,1.251082e-005
3.343235e-001,-1.863127e-005,1.254880e-005
3.351176e-001,-1.728847e-005,1.259277e-005
3.359118e-001,-1.560998e-005,1.263051e-005
3.367059e-001,-1.493858e-005,1.266119e-005
3.375000e-001,-1.191730e-005,1.268923e-005
3.382941e-001,-1.242084e-005,1.270704e-005
3.390882e-001,-1.258869e-005,1.272636e-005
3.398824e-001,-1.493858e-005,1.274617e-005
3.406765e-001,-1.242084e-005,1.277402e-005
3.414706e-001,-1.091020e-005,1.279323e-005
3.422647e-001,-1.158160e-005,1.280804e-005
3.430588e-001,-1.258869e-005,1.282471e-005
3.438529e-001,-9.567407e-006,1.284437e-005
3.446471e-001,-8.896010e-006,1.284272e-005
3.454412e-001,-1.460288e-005,1.285035e-005
3.462353e-001,-1.560998e-005,1.287632e-005
3.470294e-001,-1.191730e-005,1.290639e-005
3.478235e-001,-1.896696e-005,1.292373e-005
3.486176e-001,-1.963836e-005,1.296686e-005
3.494118e-001,-1.846342e-005,1.300652e-005
3.502059e-001,-1.426719e-005,1.304091e-005
3.510000e-001,-1.158160e-005,1.305032e-005
3.517941e-001,-1.292439e-005,1.304935e-005
3.525882e-001,-1.292439e-005,1.305142e-005
3.533824e-001,-1.309224e-005,1.304924e-005
3.541765e-001,-1.023880e-005,1.304106e-005
3.549706e-001,-9.567407e-006,1.303016e-005
3.557647e-001,-1.191730e-005,1.300893e-005
3.565588e-001,-1.040665e-005,1.298828e-005
3.573529e-001,-8.896010e-006,1.295423e-005
3.581471e-001,-1.225299e-005,1.292277e-005
3.589412e-001,-1.258869e-005,1.291499e-005
3.597353e-001,-1.057450e-005,1.290448e-005
3.605294e-001,-1.023880e-005,1.287993e-005
3.613235e-001,-8.896010e-006,1.286889e-005
3.621176e-001,-9.231709e-006,1.284852e-005
3.629118e-001,-7.217518e-006,1.282755e-005
3.637059e-001,-4.196231e-006,1.280873e-005
3.645000e-001,-3.524834e-006,1.278189e-005
3.652941e-001,-5.203327e-006,1.275038e-005
3.660882e-001,-3.524834e-006,1.272460e-005
3.668824e-001,-4.531929e-006,1.270300e-005
3.676765e-001,-6.881819e-006,1.268462e-005
3.684706e-001,-6.210422e-006,1.268137e-005
3.692647e-001,-1.057450e-005,1.267472e-005
3.700588e-001,-1.225299e-005,1.266554e-005
3.708529e-001,-1.359579e-005,1.266755e-005
3.716471e-001,-1.225299e-005,1.266924e-005
3.724412e-001,-1.359579e-005,1.266312e-005
3.732353e-001,-1.460288e-005,1.266749e-005
3.740294e-001,-1.493858e-005,1.267839e-005
3.748235e-001,-1.158160e-005,1.268651e-005
3.756176e-001,-1.560998e-005,1.268747e-005
3.764118e-001,-1.560998e-005,1.269921e-005
3.772059e-001,-1.527428e-005,1.271483e-005
3.780000e-001,-1.577783e-005,1.272419e-005
3.787941e-001,-1.493858e-005,1.274543e-005
3.795882e-001,-1.560998e-005,1.275750e-005
3.803824e-001,-1.426719e-005,1.277802e-005
3.811765e-001,-1.460288e-005,1.279116e-005
3.819706e-001,-1.359579e-005,1.279901e-005
3.827647e-001,-1.225299e-005,1.280483e-005
3.835588e-001,-1.158160e-005,1.281046e-005
3.843529e-001,-1.158160e-005,1.282004e-005
3.851471e-001,-1.326009e-005,1.282192e-005
3.859412e-001,-1.292439e-005,1.282407e-005
3.867353e-001,-1.393149e-005,1.282617e-005
3.875294e-001,-1.493858e-005,1.283263e-005
3.883235e-001,-1.393149e-005,1.284896e-005
3.891176e-001,-1.560998e-005,1.286713e-005
3.899118e-001,-1.393149e-005,1.289082e-005
3.907059e-001,-1.527428e-005,1.290773e-005
3.915000e-001,-1.292439e-005,1.293065e-005
3.922941e-001,-1.040665e-005,1.294072e-005
3.930882e-001,-7.721065e-006,1.294572e-005
3.938824e-001,-1.225299e-005,1.294831e-005
3.946765e-001,-1.393149e-005,1.296228e-005
3.954706e-001,-1.091020e-005,1.297780e-005
3.962647e-001,-1.023880e-005,1.297780e-005
3.970588e-001,-9.567407e-006,1.297780e-005
3.978529e-001,-9.903105e-006,1.298039e-005
3.986471e-001,-1.359579e-005,1.298343e-005
3.994412e-001,-1.393149e-005,1.299324e-005
4.002353e-001,-1.393149e-005,1.300243e-005
4.010294e-001,-1.393149e-005,1.300127e-005
4.018235e-001,-1.124590e-005,1.299771e-005
4.026176e-001,-1.326009e-005,1.299481e-005
4.034118e-001,-1.628138e-005,1.298387e-005
4.042059e-001,-1.376364e-005,1.297973e-005
4.050000e-001,-1.493858e-005,1.297559e-005
4.057941e-001,-1.829557e-005,1.297307e-005
4.065882e-001,-1.426719e-005,1.299145e-005
4.073824e-001,-1.493858e-005,1.299593e-005
4.081765e-001,-1.359579e-005,1.300280e-005
4.089706e-001,-1.393149e-005,1.300705e-005
4.097647e-001,-1.359579e-005,1.301880e-005
4.105588e-001,-1.560998e-005,1.302816e-005
4.113529e-001,-1.527428e-005,1.304674e-005
4.121471e-001,-1.493858e-005,1.305884e-005
4.129412e-001,-1.527428e-005,1.305760e-005
4.137353e-001,-1.225299e-005,1.305634e-005
4.145294e-001,-1.158160e-005,1.305375e-005
4.153235e-001,-9.567407e-006,1.304288e-005
4.161176e-001,-1.124590e-005,1.302033e-005
4.169118e-001,-9.567407e-006,1.301318e-005
4.177059e-001,-1.393149e-005,1.299707e-005
4.185000e-001,-1.661708e-005,1.299035e-005
4.192941e-001,-1.426719e-005,1.298612e-005
4.200882e-001,-1.577783e-005,1.296850e-005
4.208824e-001,-1.258869e-005,1.295796e-005
4.216765e-001,-1.124590e-005,1.292502e-005
4.224706e-001,-1.091020e-005,1.290231e-005
4.232647e-001,-1.091020e-005,1.288692e-005
4.240588e-001,-9.231709e-006,1.287647e-005
4.248529e-001,-1.158160e-005,1.287229e-005
4.256471e-001,-1.326009e-005,1.287416e-005
4.264412e-001,-9.903105e-006,1.286830e-005
4.272353e-001,-1.258869e-005,1.286479e-005
4.280294e-001,-1.023880e-005,1.287603e-005
4.288235e-001,-1.225299e-005,1.288422e-005
4.296176e-001,-1.359579e-005,1.289407e-005
4.304118e-001,-1.258869e-005,1.290394e-005
4.312059e-001,-9.567407e-006,1.290497e-005
4.320000e-001,-8.896010e-006,1.289114e-005
4.327941e-001,-1.225299e-005,1.287751e-005
4.335882e-001,-1.426719e-005,1.287322e-005
4.343824e-001,-1.242084e-005,1.287773e-005
4.351765e-001,-1.359579e-005,1.286796e-005
4.359706e-001,-1.057450e-005,1.286322e-005
4.367647e-001,-8.224612e-006,1.285417e-005
4.375588e-001,-9.567407e-006,1.284593e-005
4.383529e-001,-8.560311e-006,1.282835e-005
4.391471e-001,-6.042573e-006,1.278617e-005
4.399412e-001,-4.867628e-006,1.275050e-005
4.407353e-001,-6.881819e-006,1.270846e-005
4.415294e-001,-6.881819e-006,1.268642e-005
4.423235e-001,-5.539025e-006,1.266558e-005
4.431176e-001,-7.553216e-006,1.264383e-005
4.439118e-001,-1.225299e-005,1.263210e-005
4.447059e-001,-1.091020e-005,1.262997e-005
4.455000e-001,-8.224612e-006,1.261991e-005
4.462941e-001,-1.023880e-005,1.259768e-005
4.470882e-001,-1.174945e-005,1.257164e-005
4.478824e-001,-1.091020e-005,1.255125e-005
4.486765e-001,-1.258869e-005,1.253803e-005
4.494706e-001,-1.426719e-005,1.254012e-005
4.502647e-001,-1.359579e-005,1.254690e-005
4.510588e-001,-1.527428e-005,1.254916e-005
4.518529e-001,-1.762417e-005,1.255531e-005
4.526471e-001,-1.963836e-005,1.257767e-005
4.534412e-001,-1.896696e-005,1.261642e-005
4.542353e-001,-1.661708e-005,1.264486e-005
4.550294e-001,-1.628138e-005,1.264199e-005
4.558235e-001,-1.695277e-005,1.263007e-005
4.566176e-001,-1.695277e-005,1.263816e-005
4.574118e-001,-1.426719e-005,1.264625e-005
4.582059e-001,-1.225299e-005,1.264251e-005
4.590000e-001,-1.728847e-005,1.263331e-005
4.597941e-001,-1.426719e-005,1.264651e-005
4.605882e-001,-1.023880e-005,1.265978e-005
4.613824e-001,-1.023880e-005,1.265978e-005
4.621765e-001,-1.225299e-005,1.265408e-005
4.629706e-001,-1.628138e-005,1.266105e-005
4.637647e-001,-1.359579e-005,1.267337e-005
4.645588e-001,-1.158160e-005,1.267506e-005
4.653529e-001,-1.443504e-005,1.268474e-005
4.661471e-001,-1.225299e-005,1.270240e-005
4.669412e-001,-7.553216e-006,1.271374e-005
4.677353e-001,-1.091020e-005,1.271097e-005
4.685294e-001,-1.091020e-005,1.271275e-005
4.693235e-001,-9.567407e-006,1.271182e-005
4.701176e-001,-1.258869e-005,1.269778e-005
4.709118e-001,-1.091020e-005,1.269560e-005
4.717059e-001,-9.567407e-006,1.269065e-005
4.725000e-001,-1.527428e-005,1.268118e-005
4.732941e-001,-1.560998e-005,1.268726e-005
4.740882e-001,-1.091020e-005,1.270100e-005
4.748824e-001,-1.292439e-005,1.270007e-005
4.756765e-001,-1.258869e-005,1.270953e-005
4.764706e-001,-1.023880e-005,1.272717e-005
4.772647e-001,-8.896010e-006,1.273808e-005
4.780588e-001,-8.896010e-006,1.274695e-005
4.788529e-001,-8.392462e-006,1.275463e-005
4.796471e-001,-5.874723e-006,1.276047e-005
4.804412e-001,-6.210422e-006,1.276182e-005
4.812353e-001,-8.224612e-006,1.276072e-005
4.820294e-001,-1.091020e-005,1.276325e-005
4.828235e-001,-1.124590e-005,1.276966e-005
4.836176e-001,-1.124590e-005,1.277556e-005
4.844118e-001,-5.874723e-006,1.278070e-005
4.852059e-001,-8.560311e-006,1.277514e-005
4.860000e-001,-1.359579e-005,1.276657e-005
4.867941e-001,-1.393149e-005,1.276424e-005
4.875882e-001,-1.393149e-005,1.276061e-005
4.883824e-001,-1.443504e-005,1.274457e-005
4.891765e-001,-1.695277e-005,1.271904e-005
4.899706e-001,-1.628138e-005,1.271613e-005
4.907647e-001,-1.594568e-005,1.272138e-005
4.915588e-001,-1.762417e-005,1.272002e-005
4.923529e-001,-1.493858e-005,1.272221e-005
4.931471e-001,-1.829557e-005,1.271558e-005
4.939412e-001,-1.846342e-005,1.272828e-005
4.947353e-001,-1.930266e-005,1.274779e-005
4.955294e-001,-1.594568e-005,1.277849e-005
4.963235e-001,-1.359579e-005,1.279710e-005
4.971176e-001,-1.225299e-005,1.281529e-005
4.979118e-001,-1.191730e-005,1.282989e-005
4.987059e-001,-1.493858e-005,1.284322e-005
4.995000e-001,-1.762417e-005,1.286659e-005
5.002941e-001,-1.712062e-005,1.290263e-005
5.010882e-001,-1.762417e-005,1.293622e-005
5.018824e-001,-1.443504e-005,1.296740e-005
5.026765e-001,-1.225299e-005,1.298715e-005
5.034706e-001,-1.225299e-005,1.299856e-005
5.042647e-001,-1.158160e-005,1.300996e-005
5.050588e-001,-1.057450e-005,1.301181e-005
5.058529e-001,-4.867628e-006,1.300505e-005
5.066471e-001,-7.553216e-006,1.297131e-005
5.074412e-001,-8.560311e-006,1.293867e-005
5.082353e-001,-8.560311e-006,1.291897e-005
5.090294e-001,-6.546120e-006,1.289462e-005
5.098235e-001,-7.553216e-006,1.285384e-005
5.106176e-001,-8.896010e-006,1.283070e-005
5.114118e-001,-1.158160e-005,1.282189e-005
5.122059e-001,-1.124590e-005,1.280696e-005
5.130000e-001,-1.258869e-005,1.277792e-005
5.137941e-001,-1.359579e-005,1.276185e-005
5.145882e-001,-1.309224e-005,1.272453e-005
5.153824e-001,-1.091020e-005,1.270014e-005
5.161765e-001,-1.225299e-005,1.266992e-005
5.169706e-001,-1.225299e-005,1.264670e-005
5.177647e-001,-1.040665e-005,1.263152e-005
5.185588e-001,-7.888914e-006,1.261704e-005
5.193529e-001,-8.224612e-006,1.260155e-005
5.201471e-001,-7.553216e-006,1.259506e-005
5.209412e-001,-8.224612e-006,1.258987e-005
5.217353e-001,-6.210422e-006,1.258517e-005
5.225294e-001,-6.881819e-006,1.258405e-005
5.233235e-001,-8.896010e-006,1.257926e-005
5.241176e-001,-1.091020e-005,1.258000e-005
5.249118e-001,-1.326009e-005,1.258785e-005
5.257059e-001,-1.124590e-005,1.259503e-005
5.265000e-001,-1.124590e-005,1.259406e-005
5.272941e-001,-1.426719e-005,1.258893e-005
5.280882e-001,-1.628138e-005,1.258893e-005
5.288824e-001,-1.695277e-005,1.260548e-005
5.296765e-001,-1.762417e-005,1.262673e-005
5.304706e-001,-1.695277e-005,1.265178e-005
5.312647e-001,-1.493858e-005,1.266904e-005
5.320588e-001,-1.795987e-005,1.269112e-005
5.328529e-001,-1.896696e-005,1.272086e-005
5.336471e-001,-1.896696e-005,1.275096e-005
5.344412e-001,-1.493858e-005,1.277711e-005
5.352353e-001,-1.426719e-005,1.278620e-005
5.360294e-001,-1.829557e-005,1.278853e-005
5.368235e-001,-1.644922e-005,1.281046e-005
5.376176e-001,-1.695277e-005,1.282439e-005
5.384118e-001,-1.829557e-005,1.283110e-005
5.392059e-001,-1.728847e-005,1.284677e-005
5.400000e-001,-1.695277e-005,1.285976e-005
5.407941e-001,-1.661708e-005,1.287872e-005
5.415882e-001,-1.829557e-005,1.289813e-005
5.423824e-001,-1.896696e-005,1.292090e-005
5.431765e-001,-1.493858e-005,1.293894e-005
5.439706e-001,-1.326009e-005,1.294690e-005
5.447647e-001,-1.376364e-005,1.295563e-005
5.455588e-001,-9.903105e-006,1.297059e-005
5.463529e-001,-8.392462e-006,1.297433e-005
5.471471e-001,-7.553216e-006,1.297398e-005
5.479412e-001,-7.217518e-006,1.297127e-005
5.487353e-001,-9.567407e-006,1.296794e-005
5.495294e-001,-1.191730e-005,1.297218e-005
5.503235e-001,-8.224612e-006,1.298584e-005
5.511176e-001,-6.546120e-006,1.298515e-005
5.519118e-001,-9.903105e-006,1.297755e-005
5.527059e-001,-1.023880e-005,1.297795e-005
5.535000e-001,-7.553216e-006,1.298251e-005
5.542941e-001,-5.539025e-006,1.298798e-005
5.550882e-001,-7.217518e-006,1.298411e-005
5.558824e-001,-5.539025e-006,1.297001e-005
5.566765e-001,-3.692683e-006,1.295431e-005
5.574706e-001,-6.881819e-006,1.293852e-005
5.582647e-001,-8.896010e-006,1.292159e-005
5.590588e-001,-1.091020e-005,1.290383e-005
5.598529e-001,-1.091020e-005,1.289999e-005
5.606471e-001,-9.567407e-006,1.288713e-005
5.614412e-001,-1.091020e-005,1.286701e-005
5.622353e-001,-1.023880e-005,1.285157e-005
5.630294e-001,-8.224612e-006,1.283436e-005
5.638235e-001,-9.567407e-006,1.280269e-005
5.646176e-001,-1.124590e-005,1.277241e-005
5.654118e-001,-1.493858e-005,1.275512e-005
5.662059e-001,-1.628138e-005,1.276212e-005
5.670000e-001,-1.493858e-005,1.278376e-005
5.677941e-001,-1.359579e-005,1.280311e-005
5.685882e-001,-1.628138e-005,1.281588e-005
5.693824e-001,-1.493858e-005,1.283401e-005
5.701765e-001,-1.225299e-005,1.285111e-005
5.709706e-001,-9.063859e-006,1.285915e-005
5.717647e-001,-8.224612e-006,1.285459e-005
5.725588e-001,-5.706874e-006,1.284227e-005
5.733529e-001,-3.524834e-006,1.281341e-005
5.741471e-001,-4.196231e-006,1.279081e-005
5.749412e-001,-5.539025e-006,1.277165e-005
5.757353e-001,-8.560311e-006,1.275875e-005
5.765294e-001,-1.124590e-005,1.274915e-005
5.773235e-001,-1.158160e-005,1.273580e-005
5.781176e-001,-1.158160e-005,1.272466e-005
5.789118e-001,-1.057450e-005,1.271537e-005
5.797059e-001,-9.903105e-006,1.269885e-005
5.805000e-001,-1.141375e-005,1.268561e-005
5.812941e-001,-9.567407e-006,1.267267e-005
5.820882e-001,-9.903105e-006,1.265612e-005
5.828824e-001,-1.393149e-005,1.263779e-005
5.836765e-001,-1.292439e-005,1.262458e-005
5.844706e-001,-1.326009e-005,1.260185e-005
5.852647e-001,-1.158160e-005,1.258629e-005
5.860588e-001,-1.124590e-005,1.257242e-005
5.868529e-001,-1.124590e-005,1.256017e-005
5.876471e-001,-1.258869e-005,1.255820e-005
5.884412e-001,-1.493858e-005,1.255873e-005
5.892353e-001,-1.712062e-005,1.256693e-005
5.900294e-001,-2.064546e-005,1.257579e-005
5.908235e-001,-2.232395e-005,1.261018e-005
5.916176e-001,-2.500954e-005,1.265799e-005
5.924118e-001,-2.366674e-005,1.271965e-005
5.932059e-001,-2.098116e-005,1.276983e-005
5.940000e-001,-2.232395e-005,1.281323e-005
5.947941e-001,-1.896696e-005,1.286523e-005
5.955882e-001,-1.913481e-005,1.288335e-005
5.963824e-001,-1.795987e-005,1.289847e-005
5.971765e-001,-1.560998e-005,1.292074e-005
5.979706e-001,-1.493858e-005,1.290643e-005
5.987647e-001,-1.577783e-005,1.288636e-005
5.995588e-001,-1.460288e-005,1.287500e-005
6.003529e-001,-1.493858e-005,1.287619e-005
6.011471e-001,-1.124590e-005,1.288720e-005
6.019412e-001,-1.023880e-005,1.288219e-005
6.027353e-001,-9.567407e-006,1.287449e-005
6.035294e-001,-8.896010e-006,1.286461e-005
6.043235e-001,-8.560311e-006,1.286143e-005
6.051176e-001,-7.888914e-006,1.285917e-005
6.059118e-001,-6.881819e-006,1.284929e-005
6.067059e-001,-6.881819e-006,1.284173e-005
6.075000e-001,-6.210422e-006,1.283779e-005
6.082941e-001,-4.867628e-006,1.282394e-005
6.090882e-001,-4.531929e-006,1.280720e-005
6.098824e-001,-6.210422e-006,1.279584e-005
6.106765e-001,-7.888914e-006,1.278759e-005
6.114706e-001,-8.560311e-006,1.278549e-005
6.122647e-001,-9.903105e-006,1.278400e-005
6.130588e-001,-9.903105e-006,1.278973e-005
6.138529e-001,-1.158160e-005,1.279974e-005
6.146471e-001,-1.158160e-005,1.281487e-005
6.154412e-001,-1.594568e-005,1.282817e-005
6.162353e-001,-1.560998e-005,1.285815e-005
6.170294e-001,-1.493858e-005,1.288576e-005
6.178235e-001,-1.359579e-005,1.290746e-005
6.186176e-001,-1.695277e-005,1.292549e-005
6.194118e-001,-1.695277e-005,1.294711e-005
6.202059e-001,-1.695277e-005,1.296398e-005
6.210000e-001,-1.695277e-005,1.297657e-005
6.217941e-001,-1.728847e-005,1.299340e-005
6.225882e-001,-1.292439e-005,1.300737e-005
6.233824e-001,-1.124590e-005,1.300171e-005
6.241765e-001,-1.409934e-005,1.298986e-005
6.249706e-001,-1.225299e-005,1.299779e-005
6.257647e-001,-1.460288e-005,1.298632e-005
6.265588e-001,-1.644922e-005,1.298259e-005
6.273529e-001,-1.393149e-005,1.298716e-005
6.281471e-001,-1.225299e-005,1.298044e-005
6.289412e-001,-1.124590e-005,1.297147e-005
6.297353e-001,-1.091020e-005,1.295708e-005
6.305294e-001,-1.057450e-005,1.294669e-005
6.313235e-001,-8.896010e-006,1.293421e-005
6.321176e-001,-1.091020e-005,1.292119e-005
6.329118e-001,-1.057450e-005,1.291735e-005
6.337059e-001,-1.023880e-005,1.291460e-005
6.345000e-001,-1.359579e-005,1.291099e-005
6.352941e-001,-1.393149e-005,1.291210e-005
6.360882e-001,-1.510643e-005,1.291544e-005
6.368824e-001,-1.091020e-005,1.291964e-005
6.376765e-001,-1.091020e-005,1.290680e-005
6.384706e-001,-1.493858e-005,1.289754e-005
6.392647e-001,-1.695277e-005,1.289501e-005
6.400588e-001,-1.359579e-005,1.290652e-005
6.408529e-001,-7.721065e-006,1.290054e-005
6.416471e-001,-7.553216e-006,1.288728e-005
6.424412e-001,-1.326009e-005,1.288094e-005
6.432353e-001,-1.527428e-005,1.289530e-005
6.440294e-001,-1.242084e-005,1.290557e-005
6.448235e-001,-1.091020e-005,1.290065e-005
6.456176e-001,-1.023880e-005,1.290065e-005
6.464118e-001,-1.191730e-005,1.290065e-005
6.472059e-001,-1.225299e-005,1.290688e-005
6.480000e-001,-1.292439e-005,1.291331e-005
6.487941e-001,-1.376364e-005,1.291111e-005
6.495882e-001,-1.426719e-005,1.291054e-005
6.503824e-001,-1.493858e-005,1.291171e-005
6.511765e-001,-1.258869e-005,1.291529e-005
6.519706e-001,-1.225299e-005,1.291924e-005
6.527647e-001,-1.225299e-005,1.291607e-005
6.535588e-001,-1.359579e-005,1.290189e-005
6.543529e-001,-1.359579e-005,1.290132e-005
6.551471e-001,-1.443504e-005,1.289659e-005
6.559412e-001,-1.628138e-005,1.288098e-005
6.567353e-001,-1.158160e-005,1.288859e-005
6.575294e-001,-1.091020e-005,1.287758e-005
6.583235e-001,-1.762417e-005,1.286944e-005
6.591176e-001,-1.426719e-005,1.288385e-005
6.599118e-001,-7.553216e-006,1.288616e-005
6.607059e-001,-9.567407e-006,1.286308e-005
6.615000e-001,-1.527428e-005,1.284552e-005
6.622941e-001,-1.896696e-005,1.284678e-005
6.630882e-001,-1.728847e-005,1.286244e-005
6.638824e-001,-1.695277e-005,1.288084e-005
6.646765e-001,-1.661708e-005,1.289978e-005
6.654706e-001,-1.493858e-005,1.292254e-005
6.662647e-001,-1.628138e-005,1.293445e-005
6.670588e-001,-1.292439e-005,1.295580e-005
6.678529e-001,-1.493858e-005,1.295247e-005
6.686471e-001,-1.493858e-005,1.294596e-005
6.694412e-001,-1.426719e-005,1.294837e-005
6.702353e-001,-1.493858e-005,1.294279e-005
6.710294e-001,-9.903105e-006,1.295075e-005
6.718235e-001,-1.124590e-005,1.294725e-005
6.726176e-001,-8.560311e-006,1.294817e-005
6.734118e-001,-7.553216e-006,1.294254e-005
6.742059e-001,-5.539025e-006,1.293907e-005
6.750000e-001,-4.867628e-006,1.292634e-005
6.757941e-001,-6.210422e-006,1.290758e-005
6.765882e-001,-5.874723e-006,1.290024e-005
6.773824e-001,-5.539025e-006,1.288493e-005
6.781765e-001,-8.224612e-006,1.287576e-005
6.789706e-001,-8.224612e-006,1.286555e-005
6.797647e-001,-4.196231e-006,1.285104e-005
6.805588e-001,-5.539025e-006,1.283357e-005
6.813529e-001,-4.196231e-006,1.282602e-005
6.821471e-001,-5.874723e-006,1.281838e-005
6.829412e-001,-9.903105e-006,1.280401e-005
6.837353e-001,-1.023880e-005,1.279088e-005
6.845294e-001,-1.460288e-005,1.278473e-005
6.853235e-001,-1.426719e-005,1.278826e-005
6.861176e-001,-1.225299e-005,1.279968e-005
6.869118e-001,-9.567407e-006,1.280994e-005
6.877059e-001,-1.057450e-005,1.280994e-005
6.885000e-001,-1.091020e-005,1.281473e-005
6.892941e-001,-8.896010e-006,1.282498e-005
6.900882e-001,-1.057450e-005,1.283186e-005
6.908824e-001,-1.292439e-005,1.283986e-005
6.916765e-001,-1.493858e-005,1.285469e-005
6.924706e-001,-1.426719e-005,1.287851e-005
6.932647e-001,-1.460288e-005,1.289661e-005
6.940588e-001,-1.359579e-005,1.290440e-005
6.948529e-001,-1.326009e-005,1.291252e-005
6.956471e-001,-1.527428e-005,1.292586e-005
6.964412e-001,-1.560998e-005,1.294167e-005
6.972353e-001,-1.460288e-005,1.295466e-005
6.980294e-001,-1.359579e-005,1.296624e-005
6.988235e-001,-1.997406e-005,1.296948e-005
6.996176e-001,-2.030976e-005,1.299345e-005
7.004118e-001,-1.628138e-005,1.302131e-005
7.012059e-001,-1.326009e-005,1.302520e-005
7.020000e-001,-1.393149e-005,1.300871e-005
7.027941e-001,-1.359579e-005,1.298524e-005
7.035882e-001,-9.735256e-006,1.296377e-005
7.043824e-001,-9.903105e-006,1.294148e-005
7.051765e-001,-1.023880e-005,1.292091e-005
7.059706e-001,-7.553216e-006,1.289839e-005
7.067647e-001,-1.225299e-005,1.286993e-005
7.075588e-001,-1.426719e-005,1.286332e-005
7.083529e-001,-1.359579e-005,1.286993e-005
7.091471e-001,-1.174945e-005,1.285581e-005
7.099412e-001,-9.231709e-006,1.284769e-005
7.107353e-001,-7.553216e-006,1.284526e-005
7.115294e-001,-9.567407e-006,1.283934e-005
7.123235e-001,-8.560311e-006,1.283207e-005
7.131176e-001,-7.888914e-006,1.280824e-005
7.139118e-001,-6.210422e-006,1.279299e-005
7.147059e-001,-4.531929e-006,1.278109e-005
7.155000e-001,-8.224612e-006,1.275767e-005
7.162941e-001,-1.091020e-005,1.274737e-005
7.170882e-001,-1.158160e-005,1.275511e-005
7.178824e-001,-1.359579e-005,1.275699e-005
7.186765e-001,-1.493858e-005,1.276521e-005
7.194706e-001,-1.577783e-005,1.278161e-005
7.202647e-001,-1.393149e-005,1.279288e-005
7.210588e-001,-1.292439e-005,1.280222e-005
7.218529e-001,-1.493858e-005,1.281161e-005
7.226471e-001,-1.493858e-005,1.281035e-005
7.234412e-001,-1.359579e-005,1.280780e-005
7.242353e-001,-1.628138e-005,1.281598e-005
7.250294e-001,-1.896696e-005,1.282815e-005
7.258235e-001,-1.896696e-005,1.285311e-005
7.266176e-001,-2.030976e-005,1.288465e-005
7.274118e-001,-2.165255e-005,1.292579e-005
7.282059e-001,-2.249180e-005,1.297370e-005
7.290000e-001,-2.030976e-005,1.302704e-005
7.297941e-001,-2.030976e-005,1.307316e-005
7.305882e-001,-2.030976e-005,1.311863e-005
7.313824e-001,-2.064546e-005,1.316042e-005
7.321765e-001,-1.661708e-005,1.319753e-005
7.329706e-001,-1.124590e-005,1.321558e-005
7.337647e-001,-1.124590e-005,1.321558e-005
7.345588e-001,-1.393149e-005,1.322665e-005
7.353529e-001,-1.158160e-005,1.324119e-005
7.361471e-001,-1.258869e-005,1.323509e-005
7.369412e-001,-1.091020e-005,1.323081e-005
7.377353e-001,-8.896010e-006,1.322177e-005
7.385294e-001,-8.560311e-006,1.320620e-005
7.393235e-001,-7.553216e-006,1.318035e-005
7.401176e-001,-6.881819e-006,1.315520e-005
7.409118e-001,-6.546120e-006,1.313013e-005
7.417059e-001,-6.881819e-006,1.309761e-005
7.425000e-001,-9.903105e-006,1.307622e-005
7.432941e-001,-9.231709e-006,1.304737e-005
7.440882e-001,-9.567407e-006,1.301613e-005
7.448824e-001,-1.326009e-005,1.298170e-005
7.456765e-001,-1.225299e-005,1.297208e-005
7.464706e-001,-1.141375e-005,1.296782e-005
7.472647e-001,-1.258869e-005,1.296538e-005
7.480588e-001,-1.124590e-005,1.296740e-005
7.488529e-001,-1.040665e-005,1.295552e-005
7.496471e-001,-9.231709e-006,1.293063e-005
7.504412e-001,-1.225299e-005,1.290500e-005
7.512353e-001,-7.217518e-006,1.288519e-005
7.520294e-001,-9.231709e-006,1.286586e-005
7.528235e-001,-8.896010e-006,1.285782e-005
7.536176e-001,-8.896010e-006,1.284903e-005
7.544118e-001,-9.903105e-006,1.284221e-005
7.552059e-001,-1.359579e-005,1.284050e-005
7.560000e-001,-1.326009e-005,1.286047e-005
7.567941e-001,-1.426719e-005,1.287517e-005
7.575882e-001,-1.426719e-005,1.289127e-005
7.583824e-001,-1.359579e-005,1.290736e-005
7.591765e-001,-1.359579e-005,1.292486e-005
7.599706e-001,-1.359579e-005,1.294060e-005
7.607647e-001,-9.567407e-006,1.295360e-005
7.615588e-001,-9.903105e-006,1.294836e-005
7.623529e-001,-1.124590e-005,1.294487e-005
7.631471e-001,-1.426719e-005,1.294093e-005
7.639412e-001,-1.359579e-005,1.294323e-005
7.647353e-001,-1.225299e-005,1.294488e-005
7.655294e-001,-1.359579e-005,1.294871e-005
7.663235e-001,-1.493858e-005,1.295298e-005
7.671176e-001,-1.560998e-005,1.296195e-005
7.679118e-001,-1.728847e-005,1.297857e-005
7.687059e-001,-1.225299e-005,1.300757e-005
7.695000e-001,-1.359579e-005,1.301767e-005
7.702941e-001,-1.493858e-005,1.303329e-005
7.710882e-001,-1.158160e-005,1.305228e-005
7.718824e-001,-1.225299e-005,1.306393e-005
7.726765e-001,-1.292439e-005,1.307645e-005
7.734706e-001,-1.409934e-005,1.308715e-005
7.742647e-001,-1.225299e-005,1.309685e-005
7.750588e-001,-1.158160e-005,1.309373e-005
7.758529e-001,-1.359579e-005,1.309466e-005
7.766471e-001,-1.091020e-005,1.310176e-005
7.774412e-001,-1.258869e-005,1.309148e-005
7.782353e-001,-1.594568e-005,1.307851e-005
7.790294e-001,-1.493858e-005,1.307447e-005
7.798235e-001,-1.292439e-005,1.306382e-005
7.806176e-001,-1.359579e-005,1.304914e-005
7.814118e-001,-1.225299e-005,1.304446e-005
7.822059e-001,-1.174945e-005,1.302340e-005
7.830000e-001,-1.426719e-005,1.299626e-005
7.837941e-001,-1.493858e-005,1.297711e-005
7.845882e-001,-1.258869e-005,1.297711e-005
7.853824e-001,-1.225299e-005,1.297158e-005
7.861765e-001,-1.225299e-005,1.294890e-005
7.869706e-001,-1.023880e-005,1.293408e-005
7.877647e-001,-9.567407e-006,1.291158e-005
7.885588e-001,-7.049668e-006,1.288156e-005
7.893529e-001,-8.560311e-006,1.285072e-005
7.901471e-001,-1.091020e-005,1.282416e-005
7.909412e-001,-1.057450e-005,1.280464e-005
7.917353e-001,-6.881819e-006,1.277689e-005
7.925294e-001,-7.888914e-006,1.273789e-005
7.933235e-001,-9.567407e-006,1.271776e-005
7.941176e-001,-1.023880e-005,1.270720e-005
7.949118e-001,-8.224612e-006,1.269660e-005
7.957059e-001,-7.217518e-006,1.269278e-005
7.965000e-001,-9.063859e-006,1.269048e-005
7.972941e-001,-1.359579e-005,1.269363e-005
7.980882e-001,-1.258869e-005,1.271027e-005
7.988824e-001,-1.326009e-005,1.271865e-005
7.996765e-001,-1.309224e-005,1.272289e-005
8.004706e-001,-1.225299e-005,1.273587e-005
8.012647e-001,-1.560998e-005,1.274927e-005
8.020588e-001,-1.661708e-005,1.276744e-005
8.028529e-001,-1.258869e-005,1.278879e-005
8.036471e-001,-1.057450e-005,1.280141e-005
8.044412e-001,-1.225299e-005,1.281150e-005
8.052353e-001,-1.275654e-005,1.282368e-005
8.060294e-001,-1.527428e-005,1.284007e-005
8.068235e-001,-1.594568e-005,1.286728e-005
8.076176e-001,-1.728847e-005,1.289286e-005
8.084118e-001,-1.628138e-005,1.291997e-005
8.092059e-001,-1.258869e-005,1.293796e-005
8.100000e-001,-1.393149e-005,1.294282e-005
8.107941e-001,-1.493858e-005,1.295543e-005
8.115882e-001,-1.493858e-005,1.296822e-005
8.123824e-001,-1.393149e-005,1.298274e-005
8.131765e-001,-1.628138e-005,1.299824e-005
8.139706e-001,-1.225299e-005,1.301948e-005
8.147647e-001,-1.023880e-005,1.302238e-005
8.155588e-001,-1.091020e-005,1.300790e-005
8.163529e-001,-1.023880e-005,1.299001e-005
8.171471e-001,-1.023880e-005,1.297549e-005
8.179412e-001,-1.174945e-005,1.296567e-005
8.187353e-001,-9.567407e-006,1.295006e-005
8.195294e-001,-9.903105e-006,1.293387e-005
8.203235e-001,-1.661708e-005,1.292745e-005
8.211176e-001,-1.695277e-005,1.295133e-005
8.219118e-001,-1.426719e-005,1.297832e-005
8.227059e-001,-1.527428e-005,1.299928e-005
8.235000e-001,-1.628138e-005,1.302631e-005
8.242941e-001,-1.443504e-005,1.305652e-005
8.250882e-001,-1.426719e-005,1.307818e-005
8.258824e-001,-1.191730e-005,1.309403e-005
8.266765e-001,-8.896010e-006,1.309592e-005
8.274706e-001,-7.385367e-006,1.308923e-005
8.282647e-001,-9.567407e-006,1.307954e-005
8.290588e-001,-1.359579e-005,1.307707e-005
8.298529e-001,-1.225299e-005,1.308764e-005
8.306471e-001,-6.210422e-006,1.309005e-005
8.314412e-001,-9.567407e-006,1.308361e-005
8.322353e-001,-1.023880e-005,1.308281e-005
8.330294e-001,-1.023880e-005,1.307194e-005
8.338235e-001,-1.091020e-005,1.306436e-005
8.346176e-001,-1.258869e-005,1.305744e-005
8.354118e-001,-1.376364e-005,1.306041e-005
8.362059e-001,-1.107805e-005,1.306808e-005
8.370000e-001,-8.896010e-006,1.306763e-005
8.377941e-001,-1.242084e-005,1.305795e-005
8.385882e-001,-1.359579e-005,1.304955e-005
8.393824e-001,-1.124590e-005,1.303633e-005
8.401765e-001,-1.091020e-005,1.299967e-005
8.409706e-001,-1.091020e-005,1.295312e-005
8.417647e-001,-1.057450e-005,1.289071e-005
8.425588e-001,-9.063859e-006,1.283521e-005
8.433529e-001,-9.903105e-006,1.279072e-005
8.441471e-001,-7.888914e-006,1.274079e-005
8.449412e-001,-1.091020e-005,1.270355e-005
8.457353e-001,-8.560311e-006,1.267254e-005
8.465294e-001,-1.057450e-005,1.264117e-005
8.473235e-001,-1.023880e-005,1.262455e-005
8.481176e-001,-1.191730e-005,1.260962e-005
8.489118e-001,-1.359579e-005,1.259611e-005
8.497059e-001,-9.903105e-006,1.259252e-005
8.505000e-001,-8.560311e-006,1.257669e-005
8.512941e-001,-1.023880e-005,1.256996e-005
8.520882e-001,-1.191730e-005,1.256996e-005
8.528824e-001,-1.225299e-005,1.257635e-005
8.536765e-001,-1.426719e-005,1.258534e-005
8.544706e-001,-1.091020e-005,1.260181e-005
8.552647e-001,-1.091020e-005,1.260898e-005
8.560588e-001,-1.292439e-005,1.261803e-005
8.568529e-001,-1.695277e-005,1.263313e-005
8.576471e-001,-1.527428e-005,1.266445e-005
8.584412e-001,-1.426719e-005,1.269078e-005
8.592353e-001,-1.628138e-005,1.271372e-005
8.600294e-001,-1.896696e-005,1.274206e-005
8.608235e-001,-1.795987e-005,1.277919e-005
8.616176e-001,-1.560998e-005,1.281021e-005
8.624118e-001,-1.762417e-005,1.282830e-005
8.632059e-001,-1.963836e-005,1.285465e-005
8.640000e-001,-1.376364e-005,1.288577e-005
8.647941e-001,-1.493858e-005,1.289260e-005
8.655882e-001,-1.460288e-005,1.288876e-005
8.663824e-001,-1.577783e-005,1.288500e-005
8.671765e-001,-1.426719e-005,1.288819e-005
8.679706e-001,-1.309224e-005,1.289050e-005
8.687647e-001,-1.225299e-005,1.287616e-005
8.695588e-001,-1.158160e-005,1.285918e-005
8.703529e-001,-1.359579e-005,1.284018e-005
8.711471e-001,-1.359579e-005,1.282746e-005
8.719412e-001,-1.124590e-005,1.281329e-005
8.727353e-001,-1.258869e-005,1.280825e-005
8.735294e-001,-1.359579e-005,1.281223e-005
8.743235e-001,-1.460288e-005,1.281050e-005
8.751176e-001,-1.393149e-005,1.281834e-005
8.759118e-001,-1.326009e-005,1.281596e-005
8.767059e-001,-1.124590e-005,1.280418e-005
8.775000e-001,-1.359579e-005,1.279577e-005
8.782941e-001,-1.091020e-005,1.280009e-005
8.790882e-001,-8.224612e-006,1.279916e-005
8.798824e-001,-1.225299e-005,1.279277e-005
8.806765e-001,-1.107805e-005,1.279754e-005
8.814706e-001,-1.124590e-005,1.280296e-005
8.822647e-001,-1.091020e-005,1.280388e-005
8.830588e-001,-1.158160e-005,1.280478e-005
8.838529e-001,-8.896010e-006,1.280842e-005
8.846471e-001,-8.896010e-006,1.279528e-005
8.854412e-001,-1.124590e-005,1.278096e-005
8.862353e-001,-9.567407e-006,1.276828e-005
8.870294e-001,-7.553216e-006,1.276485e-005
8.878235e-001,-1.091020e-005,1.275712e-005
8.886176e-001,-1.359579e-005,1.274411e-005
8.894118e-001,-1.124590e-005,1.273129e-005
8.902059e-001,-1.091020e-005,1.272399e-005
8.910000e-001,-9.567407e-006,1.273142e-005
8.917941e-001,-7.888914e-006,1.273574e-005
8.925882e-001,-1.091020e-005,1.272152e-005
8.933824e-001,-6.881819e-006,1.270721e-005
8.941765e-001,-6.042573e-006,1.269381e-005
8.949706e-001,-1.040665e-005,1.268345e-005
8.957647e-001,-9.231709e-006,1.268389e-005
8.965588e-001,-7.217518e-006,1.267676e-005
8.973529e-001,-7.217518e-006,1.266443e-005
8.981471e-001,-7.553216e-006,1.264997e-005
8.989412e-001,-5.874723e-006,1.263330e-005
8.997353e-001,-1.091020e-005,1.261197e-005
9.005294e-001,-1.795987e-005,1.259882e-005
9.013235e-001,-1.326009e-005,1.261954e-005
9.021176e-001,-1.628138e-005,1.262278e-005
9.029118e-001,-1.728847e-005,1.263727e-005
9.037059e-001,-1.712062e-005,1.265164e-005
9.045000e-001,-1.728847e-005,1.266525e-005
9.052941e-001,-1.309224e-005,1.267663e-005
9.060882e-001,-1.560998e-005,1.266486e-005
9.068824e-001,-1.493858e-005,1.267862e-005
9.076765e-001,-1.359579e-005,1.269169e-005
9.084706e-001,-1.426719e-005,1.267591e-005
9.092647e-001,-1.493858e-005,1.267591e-005
9.100588e-001,-1.359579e-005,1.269675e-005
9.108529e-001,-1.560998e-005,1.270845e-005
9.116471e-001,-1.712062e-005,1.270975e-005
9.124412e-001,-1.443504e-005,1.270140e-005
9.132353e-001,-1.258869e-005,1.269005e-005
9.140294e-001,-1.359579e-005,1.267386e-005
9.148235e-001,-1.510643e-005,1.266238e-005
9.156176e-001,-1.728847e-005,1.266302e-005
9.164118e-001,-1.628138e-005,1.266727e-005
9.172059e-001,-1.510643e-005,1.267959e-005
9.180000e-001,-1.560998e-005,1.268022e-005
9.187941e-001,-1.158160e-005,1.268280e-005
9.195882e-001,-1.359579e-005,1.267408e-005
9.203824e-001,-1.393149e-005,1.266926e-005
9.211765e-001,-1.225299e-005,1.268132e-005
9.219706e-001,-1.359579e-005,1.268430e-005
9.227647e-001,-1.443504e-005,1.269829e-005
9.235588e-001,-1.225299e-005,1.271726e-005
9.243529e-001,-9.567407e-006,1.273220e-005
9.251471e-001,-6.881819e-006,1.274069e-005
9.259412e-001,-7.553216e-006,1.274178e-005
9.267353e-001,-8.224612e-006,1.274460e-005
9.275294e-001,-5.539025e-006,1.274922e-005
9.283235e-001,-4.196231e-006,1.274460e-005
9.291176e-001,-9.567407e-006,1.273835e-005
9.299118e-001,-1.091020e-005,1.274759e-005
9.307059e-001,-9.903105e-006,1.275862e-005
9.315000e-001,-1.023880e-005,1.276866e-005
9.322941e-001,-1.158160e-005,1.277742e-005
9.330882e-001,-1.158160e-005,1.278192e-005
9.338824e-001,-1.292439e-005,1.278557e-005
9.346765e-001,-1.510643e-005,1.277981e-005
9.354706e-001,-1.762417e-005,1.278288e-005
9.362647e-001,-1.292439e-005,1.280286e-005
9.370588e-001,-1.560998e-005,1.281224e-005
9.378529e-001,-1.594568e-005,1.282862e-005
9.386471e-001,-1.258869e-005,1.284539e-005
9.394412e-001,-1.292439e-005,1.285523e-005
9.402353e-001,-1.661708e-005,1.286206e-005
9.410294e-001,-1.577783e-005,1.287556e-005
9.418235e-001,-1.359579e-005,1.287875e-005
9.426176e-001,-1.443504e-005,1.287644e-005
9.434118e-001,-1.695277e-005,1.287583e-005
9.442059e-001,-1.661708e-005,1.288851e-005
9.450000e-001,-1.527428e-005,1.290090e-005
9.457941e-001,-1.191730e-005,1.290090e-005
9.465882e-001,-1.158160e-005,1.288834e-005
9.473824e-001,-1.258869e-005,1.287857e-005
9.481765e-001,-1.225299e-005,1.287530e-005
9.489706e-001,-7.553216e-006,1.284449e-005
9.497647e-001,-8.560311e-006,1.280035e-005
9.505588e-001,-1.091020e-005,1.277647e-005
9.513529e-001,-7.553216e-006,1.276939e-005
9.521471e-001,-6.546120e-006,1.275229e-005
9.529412e-001,-9.567407e-006,1.273455e-005
9.537353e-001,-8.224612e-006,1.273414e-005
9.545294e-001,-8.560311e-006,1.273034e-005
9.553235e-001,-1.091020e-005,1.272639e-005
9.561176e-001,-1.023880e-005,1.273414e-005
9.569118e-001,-6.881819e-006,1.272847e-005
9.577059e-001,-8.224612e-006,1.270892e-005
9.585000e-001,-9.231709e-006,1.269423e-005
9.592941e-001,-8.896010e-006,1.268760e-005
9.600882e-001,-1.057450e-005,1.268684e-005
9.608824e-001,-1.158160e-005,1.269371e-005
9.616765e-001,-1.091020e-005,1.269905e-005
9.624706e-001,-1.091020e-005,1.270479e-005
9.632647e-001,-1.258869e-005,1.271190e-005
9.640588e-001,-1.594568e-005,1.272691e-005
9.648529e-001,-2.030976e-005,1.275612e-005
9.656471e-001,-1.762417e-005,1.279910e-005
9.664412e-001,-1.510643e-005,1.282291e-005
9.672353e-001,-1.594568e-005,1.283459e-005
9.680294e-001,-1.426719e-005,1.284320e-005
9.688235e-001,-1.393149e-005,1.284076e-005
9.696176e-001,-1.863127e-005,1.283396e-005
9.704118e-001,-2.366674e-005,1.285293e-005
9.712059e-001,-1.896696e-005,1.290154e-005
9.720000e-001,-1.527428e-005,1.291839e-005
9.727941e-001,-1.628138e-005,1.291964e-005
9.735882e-001,-1.527428e-005,1.292952e-005
9.743824e-001,-1.158160e-005,1.292561e-005
9.751765e-001,-1.225299e-005,1.289779e-005
9.759706e-001,-1.493858e-005,1.287188e-005
9.767647e-001,-1.359579e-005,1.284844e-005
9.775588e-001,-1.560998e-005,1.281319e-005
9.783529e-001,-1.326009e-005,1.278057e-005
9.791471e-001,-1.023880e-005,1.275105e-005
9.799412e-001,-7.217518e-006,1.271257e-005
9.807353e-001,-5.539025e-006,1.266735e-005
9.815294e-001,-5.874723e-006,1.261753e-005
9.823235e-001,-7.217518e-006,1.258700e-005
9.831176e-001,-2.853437e-006,1.257758e-005
9.839118e-001,8.392462e-007,1.256259e-005
9.847059e-001,-3.524834e-006,1.253806e-005
9.855000e-001,-6.210422e-006,1.252259e-005
9.862941e-001,-4.196231e-006,1.250733e-005
9.870882e-001,-5.874723e-006,1.249442e-005
9.878824e-001,-7.217518e-006,1.248873e-005
9.886765e-001,-7.553216e-006,1.248603e-005
9.894706e-001,-9.567407e-006,1.248603e-005
9.902647e-001,-8.392462e-006,1.249166e-005
9.910588e-001,-9.567407e-006,1.249517e-005
9.918529e-001,-1.158160e-005,1.250080e-005
9.926471e-001,-1.359579e-005,1.250539e-005
9.934412e-001,-1.577783e-005,1.251807e-005
9.942353e-001,-1.560998e-005,1.253808e-005
9.950294e-001,-1.695277e-005,1.254669e-005
9.958235e-001,-1.628138e-005,1.256410e-005
9.966176e-001,-1.292439e-005,1.258117e-005
9.974118e-001,-1.628138e-005,1.258226e-005
9.982059e-001,-1.326009e-005,1.259979e-005
9.990000e-001,-1.460288e-005,1.260832e-005
9.997941e-001,-1.628138e-005,1.262448e-005
1.000588e+000,-1.560998e-005,1.263897e-005
1.001382e+000,-1.560998e-005,1.266308e-005
1.002176e+000,-1.829557e-005,1.268299e-005
1.002971e+000,-1.846342e-005,1.271504e-005
1.003765e+000,-1.762417e-005,1.274778e-005
1.004559e+000,-1.762417e-005,1.277430e-005
1.005353e+000,-1.963836e-005,1.278997e-005
1.006147e+000,-1.762417e-005,1.281607e-005
1.006941e+000,-1.963836e-005,1.282936e-005
1.007735e+000,-1.795987e-005,1.285195e-005
1.008529e+000,-1.762417e-005,1.286900e-005
1.009324e+000,-1.728847e-005,1.288455e-005
1.010118e+000,-1.661708e-005,1.289863e-005
1.010912e+000,-1.628138e-005,1.292140e-005
1.011706e+000,-1.779202e-005,1.294197e-005
1.012500e+000,-1.762417e-005,1.296534e-005
1.013294e+000,-1.963836e-005,1.297848e-005
1.014088e+000,-1.795987e-005,1.300309e-005
1.014882e+000,-1.560998e-005,1.302419e-005
1.015676e+000,-1.644922e-005,1.303138e-005
1.016471e+000,-1.628138e-005,1.303717e-005
1.017265e+000,-1.409934e-005,1.303979e-005
1.018059e+000,-1.359579e-005,1.302756e-005
1.018853e+000,-1.393149e-005,1.303180e-005
1.019647e+000,-1.225299e-005,1.303293e-005
1.020441e+000,-1.091020e-005,1.302400e-005
1.021235e+000,-8.560311e-006,1.302216e-005
1.022029e+000,-9.231709e-006,1.301276e-005
1.022824e+000,-7.217518e-006,1.300274e-005
1.023618e+000,-6.378271e-006,1.298476e-005
1.024412e+000,-4.867628e-006,1.297133e-005
1.025206e+000,-4.196231e-006,1.295777e-005
1.026000e+000,-4.867628e-006,1.293720e-005
1.026794e+000,-5.539025e-006,1.292546e-005
1.027588e+000,-1.510643e-006,1.290971e-005
1.028382e+000,-2.182040e-006,1.287859e-005
1.029176e+000,-2.182040e-006,1.285156e-005
1.029971e+000,-2.853437e-006,1.283143e-005
1.030765e+000,-5.035477e-006,1.280949e-005
1.031559e+000,-6.881819e-006,1.279397e-005
1.032353e+000,-1.158160e-005,1.278267e-005
1.033147e+000,-1.292439e-005,1.277402e-005
1.033941e+000,-6.881819e-006,1.276703e-005
1.034735e+000,-6.881819e-006,1.275316e-005
1.035529e+000,-1.158160e-005,1.274032e-005
1.036324e+000,-1.107805e-005,1.273832e-005
1.037118e+000,-1.057450e-005,1.274056e-005
1.037912e+000,-1.057450e-005,1.274309e-005
1.038706e+000,-9.567407e-006,1.275085e-005
1.039500e+000,-8.224612e-006,1.275313e-005
1.040294e+000,-6.210422e-006,1.274671e-005
1.041088e+000,-8.392462e-006,1.273756e-005
1.041882e+000,-1.023880e-005,1.274044e-005
1.042676e+000,-1.242084e-005,1.274577e-005
1.043471e+000,-1.040665e-005,1.275360e-005
1.044265e+000,-1.242084e-005,1.275404e-005
1.045059e+000,-1.594568e-005,1.276485e-005
1.045853e+000,-1.426719e-005,1.279004e-005
1.046647e+000,-9.231709e-006,1.280515e-005
1.047441e+000,-1.091020e-005,1.279275e-005
1.048235e+000,-1.023880e-005,1.278784e-005
1.049029e+000,-1.158160e-005,1.277900e-005
1.049824e+000,-1.393149e-005,1.277435e-005
1.050618e+000,-1.493858e-005,1.277983e-005
1.051412e+000,-1.426719e-005,1.277727e-005
1.052206e+000,-1.560998e-005,1.276823e-005
1.053000e+000,-1.426719e-005,1.277885e-005
1.053794e+000,-2.030976e-005,1.279027e-005
1.054588e+000,-1.695277e-005,1.282289e-005
1.055382e+000,-1.493858e-005,1.283837e-005
1.056176e+000,-1.426719e-005,1.283711e-005
1.056971e+000,-1.393149e-005,1.283082e-005
1.057765e+000,-1.292439e-005,1.281780e-005
1.058559e+000,-1.258869e-005,1.280562e-005
1.059353e+000,-1.661708e-005,1.280562e-005
1.060147e+000,-1.493858e-005,1.281581e-005
1.060941e+000,-1.493858e-005,1.281581e-005
1.061735e+000,-1.225299e-005,1.281581e-005
1.062529e+000,-1.225299e-005,1.281035e-005
1.063324e+000,-1.158160e-005,1.279606e-005
1.064118e+000,-1.258869e-005,1.279406e-005
1.064912e+000,-1.644922e-005,1.280074e-005
1.065706e+000,-1.493858e-005,1.281958e-005
1.066500e+000,-1.158160e-005,1.283427e-005
1.067294e+000,-9.567407e-006,1.283790e-005
1.068088e+000,-1.292439e-005,1.283213e-005
1.068882e+000,-1.326009e-005,1.284150e-005
1.069676e+000,-1.158160e-005,1.285113e-005
1.070471e+000,-1.426719e-005,1.283353e-005
1.071265e+000,-1.661708e-005,1.282312e-005
1.072059e+000,-1.896696e-005,1.283213e-005
1.072853e+000,-1.661708e-005,1.284781e-005
1.073647e+000,-1.460288e-005,1.284918e-005
1.074441e+000,-1.225299e-005,1.284978e-005
1.075235e+000,-3.356985e-007,1.284316e-005
1.076029e+000,5.874723e-006,1.282556e-005
1.076824e+000,3.356985e-007,1.282001e-005
1.077618e+000,-5.203327e-006,1.281325e-005
1.078412e+000,-1.544213e-005,1.280524e-005
1.079206e+000,-2.400244e-005,1.281190e-005
1.080000e+000,-3.038071e-005,1.286474e-005
1.080794e+000,-3.642328e-005,1.297375e-005
1.081588e+000,-3.910887e-005,1.312447e-005
1.082382e+000,-3.910887e-005,1.329619e-005
1.083176e+000,-3.306630e-005,1.346573e-005
1.083971e+000,-2.299535e-005,1.358046e-005
1.084765e+000,-1.661708e-005,1.362381e-005
1.085559e+000,-1.376364e-005,1.363394e-005
1.086353e+000,-1.326009e-005,1.364173e-005
1.087147e+000,-1.326009e-005,1.365301e-005
1.087941e+000,-1.393149e-005,1.365553e-005
1.088735e+000,-1.225299e-005,1.365660e-005
1.089529e+000,-8.560311e-006,1.365936e-005
1.090324e+000,-6.881819e-006,1.365403e-005
1.091118e+000,-7.217518e-006,1.364567e-005
1.091912e+000,-5.203327e-006,1.363870e-005
1.092706e+000,-1.510643e-006,1.363226e-005
1.093500e+000,-2.517739e-006,1.362107e-005
1.094294e+000,-2.182040e-006,1.361453e-005
1.095088e+000,-1.846342e-006,1.360116e-005
1.095882e+000,-4.867628e-006,1.359298e-005
1.096676e+000,-5.874723e-006,1.358265e-005
1.097471e+000,-7.553216e-006,1.357441e-005
1.098265e+000,-6.881819e-006,1.356443e-005
1.099059e+000,-7.217518e-006,1.354829e-005
1.099853e+000,-1.158160e-005,1.354288e-005
1.100647e+000,-1.174945e-005,1.355003e-005
1.101441e+000,-1.091020e-005,1.355394e-005
1.102235e+000,-1.141375e-005,1.355124e-005
1.103029e+000,-1.091020e-005,1.354890e-005
1.103824e+000,-1.158160e-005,1.353896e-005
1.104618e+000,-7.217518e-006,1.354074e-005
1.105412e+000,-6.881819e-006,1.353287e-005
1.106206e+000,-6.210422e-006,1.351878e-005
1.107000e+000,-6.881819e-006,1.348944e-005
1.107794e+000,-9.063859e-006,1.346747e-005
1.108588e+000,-8.896010e-006,1.345311e-005
1.109382e+000,-9.567407e-006,1.343108e-005
1.110176e+000,-9.735256e-006,1.339924e-005
1.110971e+000,-8.896010e-006,1.337215e-005
1.111765e+000,-6.546120e-006,1.335254e-005
1.112559e+000,-6.210422e-006,1.332057e-005
1.113353e+000,-1.091020e-005,1.327901e-005
1.114147e+000,-1.493858e-005,1.327057e-005
1.114941e+000,-1.628138e-005,1.327057e-005
1.115735e+000,-1.728847e-005,1.327679e-005
1.116529e+000,-1.560998e-005,1.328277e-005
1.117324e+000,-1.158160e-005,1.328758e-005
1.118118e+000,-1.191730e-005,1.328312e-005
1.118912e+000,-1.359579e-005,1.328214e-005
1.119706e+000,-1.393149e-005,1.328822e-005
1.120500e+000,-1.359579e-005,1.328933e-005
1.121294e+000,-1.292439e-005,1.328933e-005
1.122088e+000,-1.124590e-005,1.329419e-005
1.122882e+000,-1.225299e-005,1.329035e-005
1.123676e+000,-9.567407e-006,1.328620e-005
1.124471e+000,-1.023880e-005,1.327160e-005
1.125265e+000,-1.258869e-005,1.326089e-005
1.126059e+000,-1.225299e-005,1.325880e-005
1.126853e+000,-1.158160e-005,1.326164e-005
1.127647e+000,-1.107805e-005,1.325555e-005
1.128441e+000,-1.091020e-005,1.325600e-005
1.129235e+000,-8.560311e-006,1.326217e-005
1.130029e+000,-1.023880e-005,1.325294e-005
1.130824e+000,-8.224612e-006,1.325079e-005
1.131618e+000,-7.049668e-006,1.324372e-005
1.132412e+000,-1.225299e-005,1.323538e-005
1.133206e+000,-1.426719e-005,1.323730e-005
1.134000e+000,-1.040665e-005,1.325226e-005
1.134794e+000,-1.158160e-005,1.325576e-005
1.135588e+000,-1.091020e-005,1.325668e-005
1.136382e+000,-1.225299e-005,1.325999e-005
1.137176e+000,-1.258869e-005,1.327116e-005
1.137971e+000,-1.426719e-005,1.327589e-005
1.138765e+000,-1.594568e-005,1.327814e-005
1.139559e+000,-1.426719e-005,1.329345e-005
1.140353e+000,-1.426719e-005,1.330357e-005
1.141147e+000,-1.493858e-005,1.331697e-005
1.141941e+000,-1.560998e-005,1.333620e-005
1.142735e+000,-1.527428e-005,1.335108e-005
1.143529e+000,-1.695277e-005,1.337323e-005
1.144324e+000,-1.493858e-005,1.340307e-005
1.145118e+000,-1.292439e-005,1.341671e-005
1.145912e+000,-1.107805e-005,1.342642e-005
1.146706e+000,-1.292439e-005,1.343479e-005
1.147500e+000,-1.426719e-005,1.344841e-005
1.148294e+000,-1.359579e-005,1.346575e-005
1.149088e+000,-1.225299e-005,1.348351e-005
1.149882e+000,-1.393149e-005,1.348719e-005
1.150676e+000,-1.359579e-005,1.347201e-005
1.151471e+000,-1.426719e-005,1.347308e-005
1.152265e+000,-1.560998e-005,1.346580e-005
1.153059e+000,-1.577783e-005,1.345927e-005
1.153853e+000,-1.426719e-005,1.345404e-005
1.154647e+000,-1.695277e-005,1.344275e-005
1.155441e+000,-1.493858e-005,1.345649e-005
1.156235e+000,-1.628138e-005,1.345406e-005
1.157029e+000,-1.493858e-005,1.345902e-005
1.157824e+000,-1.292439e-005,1.346355e-005
1.158618e+000,-1.359579e-005,1.345923e-005
1.159412e+000,-1.091020e-005,1.345470e-005
1.160206e+000,-1.191730e-005,1.344691e-005
1.161000e+000,-1.661708e-005,1.343487e-005
1.161794e+000,-1.510643e-005,1.343285e-005
1.162588e+000,-1.326009e-005,1.343520e-005
1.163382e+000,-1.242084e-005,1.343726e-005
1.164176e+000,-1.225299e-005,1.343364e-005
1.164971e+000,-1.107805e-005,1.342438e-005
1.165765e+000,-1.292439e-005,1.340347e-005
1.166559e+000,-1.292439e-005,1.339181e-005
1.167353e+000,-1.493858e-005,1.338454e-005
1.168147e+000,-1.225299e-005,1.338210e-005
1.168941e+000,-7.217518e-006,1.338400e-005
1.169735e+000,-9.567407e-006,1.336820e-005
1.170529e+000,-1.158160e-005,1.335598e-005
1.171324e+000,-1.393149e-005,1.335407e-005
1.172118e+000,-1.762417e-005,1.335517e-005
1.172912e+000,-1.695277e-005,1.336736e-005
1.173706e+000,-1.493858e-005,1.338370e-005
1.174500e+000,-1.258869e-005,1.339935e-005
1.175294e+000,-1.292439e-005,1.341255e-005
1.176088e+000,-1.158160e-005,1.342560e-005
1.176882e+000,-1.023880e-005,1.343348e-005
1.177676e+000,-9.567407e-006,1.344227e-005
1.178471e+000,-9.567407e-006,1.345102e-005
1.179265e+000,-1.023880e-005,1.345102e-005
1.180059e+000,-1.359579e-005,1.344934e-005
1.180853e+000,-1.258869e-005,1.345961e-005
1.181647e+000,-5.706874e-006,1.346596e-005
1.182441e+000,-8.224612e-006,1.345394e-005
1.183235e+000,-7.888914e-006,1.344607e-005
1.184029e+000,-7.553216e-006,1.343365e-005
1.184824e+000,-7.553216e-006,1.341335e-005
1.185618e+000,-8.224612e-006,1.338322e-005
1.186412e+000,-5.539025e-006,1.337138e-005
1.187206e+000,-4.867628e-006,1.334600e-005
1.188000e+000,-8.896010e-006,1.331846e-005
1.188794e+000,-8.224612e-006,1.330897e-005
1.189588e+000,-7.217518e-006,1.329707e-005
1.190382e+000,-5.874723e-006,1.327022e-005
1.191176e+000,-6.210422e-006,1.324446e-005
1.191971e+000,-6.881819e-006,1.322686e-005
1.192765e+000,-7.553216e-006,1.320746e-005
1.193559e+000,-1.091020e-005,1.317966e-005
1.194353e+000,-1.493858e-005,1.316067e-005
1.195147e+000,-1.577783e-005,1.315944e-005
1.195941e+000,-1.158160e-005,1.317237e-005
1.196735e+000,-1.091020e-005,1.317237e-005
1.197529e+000,-1.124590e-005,1.316760e-005
1.198324e+000,-9.903105e-006,1.316474e-005
1.199118e+000,-1.460288e-005,1.316970e-005
1.199912e+000,-1.560998e-005,1.318662e-005
1.200706e+000,-1.225299e-005,1.320166e-005
1.201500e+000,-1.258869e-005,1.321288e-005
1.202294e+000,-1.174945e-005,1.322681e-005
1.203088e+000,-1.443504e-005,1.323241e-005
1.203882e+000,-1.426719e-005,1.324933e-005
1.204676e+000,-1.359579e-005,1.326498e-005
1.205471e+000,-1.695277e-005,1.327288e-005
1.206265e+000,-1.795987e-005,1.329476e-005
1.207059e+000,-2.030976e-005,1.332768e-005
1.207853e+000,-1.762417e-005,1.336882e-005
1.208647e+000,-1.460288e-005,1.339564e-005
1.209441e+000,-1.292439e-005,1.341157e-005
1.210235e+000,-1.594568e-005,1.341812e-005
1.211029e+000,-1.560998e-005,1.343237e-005
1.211824e+000,-1.527428e-005,1.344714e-005
1.212618e+000,-1.527428e-005,1.346066e-005
1.213412e+000,-1.510643e-005,1.346951e-005
1.214206e+000,-1.628138e-005,1.346643e-005
1.215000e+000,-1.426719e-005,1.344899e-005
1.215794e+000,-1.493858e-005,1.343631e-005
1.216588e+000,-1.695277e-005,1.343571e-005
1.217382e+000,-1.661708e-005,1.343964e-005
1.218176e+000,-1.661708e-005,1.344823e-005
1.218971e+000,-1.560998e-005,1.345794e-005
1.219765e+000,-1.577783e-005,1.344570e-005
1.220559e+000,-1.695277e-005,1.340880e-005
1.221353e+000,-1.292439e-005,1.340020e-005
1.222147e+000,-1.225299e-005,1.339232e-005
1.222941e+000,-1.225299e-005,1.337865e-005
1.223735e+000,-1.359579e-005,1.336875e-005
1.224529e+000,-1.225299e-005,1.337479e-005
1.225324e+000,-1.158160e-005,1.337479e-005
1.226118e+000,-1.309224e-005,1.336418e-005
1.226912e+000,-1.577783e-005,1.336258e-005
1.227706e+000,-1.527428e-005,1.336321e-005
1.228500e+000,-1.225299e-005,1.337006e-005
1.229294e+000,-1.124590e-005,1.337545e-005
1.230088e+000,-9.903105e-006,1.338430e-005
1.230882e+000,-7.888914e-006,1.339232e-005
1.231676e+000,-9.567407e-006,1.339561e-005
1.232471e+000,-1.023880e-005,1.340030e-005
1.233265e+000,-1.292439e-005,1.341179e-005
1.234059e+000,-1.326009e-005,1.343152e-005
1.234853e+000,-8.560311e-006,1.345088e-005
1.235647e+000,-1.107805e-005,1.345499e-005
1.236441e+000,-1.359579e-005,1.346742e-005
1.237235e+000,-1.191730e-005,1.348518e-005
1.238029e+000,-1.023880e-005,1.349580e-005
1.238824e+000,-1.023880e-005,1.350144e-005
1.239618e+000,-1.225299e-005,1.350300e-005
1.240412e+000,-1.191730e-005,1.351240e-005
1.241206e+000,-8.896010e-006,1.351835e-005
1.242000e+000,-1.258869e-005,1.351187e-005
1.242794e+000,-1.292439e-005,1.350876e-005
1.243588e+000,-1.258869e-005,1.349910e-005
1.244382e+000,-1.326009e-005,1.348905e-005
1.245176e+000,-1.359579e-005,1.347587e-005
1.245971e+000,-1.225299e-005,1.346639e-005
1.246765e+000,-1.091020e-005,1.346439e-005
1.247559e+000,-1.023880e-005,1.344711e-005
1.248353e+000,-1.091020e-005,1.343870e-005
1.249147e+000,-9.903105e-006,1.342753e-005
1.249941e+000,-1.023880e-005,1.340771e-005
1.250735e+000,-1.174945e-005,1.339121e-005
1.251529e+000,-1.309224e-005,1.337864e-005
1.252324e+000,-1.393149e-005,1.335919e-005
1.253118e+000,-1.258869e-005,1.334168e-005
1.253912e+000,-1.460288e-005,1.332351e-005
1.254706e+000,-1.359579e-005,1.331187e-005
1.255500e+000,-1.426719e-005,1.328782e-005
1.256294e+000,-1.242084e-005,1.327499e-005
1.257088e+000,-1.292439e-005,1.324720e-005
1.257882e+000,-1.258869e-005,1.322850e-005
1.258676e+000,-1.225299e-005,1.321017e-005
1.259471e+000,-1.225299e-005,1.319223e-005
1.260265e+000,-1.225299e-005,1.317701e-005
1.261059e+000,-1.527428e-005,1.316311e-005
1.261853e+000,-1.292439e-005,1.315304e-005
1.262647e+000,-1.292439e-005,1.313564e-005
1.263441e+000,-1.292439e-005,1.310911e-005
1.264235e+000,-9.567407e-006,1.309021e-005
1.265029e+000,-1.023880e-005,1.307169e-005
1.265824e+000,-1.158160e-005,1.305148e-005
1.266618e+000,-1.292439e-005,1.303550e-005
1.267412e+000,-1.107805e-005,1.303162e-005
1.268206e+000,-1.124590e-005,1.302403e-005
1.269000e+000,-1.191730e-005,1.301576e-005
1.269794e+000,-1.040665e-005,1.301476e-005
1.270588e+000,-8.224612e-006,1.301345e-005
1.271382e+000,-1.007095e-005,1.301276e-005
1.272176e+000,-1.158160e-005,1.301474e-005
1.272971e+000,-1.124590e-005,1.302478e-005
1.273765e+000,-1.023880e-005,1.303526e-005
1.274559e+000,-1.191730e-005,1.304517e-005
1.275353e+000,-1.393149e-005,1.306035e-005
1.276147e+000,-1.728847e-005,1.308110e-005
1.276941e+000,-2.098116e-005,1.311371e-005
1.277735e+000,-2.198825e-005,1.316678e-005
1.278529e+000,-2.232395e-005,1.322455e-005
1.279324e+000,-2.064546e-005,1.328385e-005
1.280118e+000,-1.695277e-005,1.333387e-005
1.280912e+000,-1.628138e-005,1.336513e-005
1.281706e+000,-1.359579e-005,1.339105e-005
1.282500e+000,-1.158160e-005,1.339708e-005
1.283294e+000,-1.124590e-005,1.339316e-005
1.284088e+000,-1.158160e-005,1.340257e-005
1.284882e+000,-1.023880e-005,1.341287e-005
1.285676e+000,-9.903105e-006,1.340939e-005
1.286471e+000,-1.225299e-005,1.340647e-005
1.287265e+000,-1.158160e-005,1.341102e-005
1.288059e+000,-1.426719e-005,1.341366e-005
1.288853e+000,-1.628138e-005,1.342696e-005
1.289647e+000,-1.997406e-005,1.345035e-005
1.290441e+000,-2.047761e-005,1.349295e-005
1.291235e+000,-1.527428e-005,1.353406e-005
1.292029e+000,-1.460288e-005,1.354917e-005
1.292824e+000,-1.426719e-005,1.355610e-005
1.293618e+000,-1.426719e-005,1.356728e-005
1.294412e+000,-1.426719e-005,1.357306e-005
1.295206e+000,-1.359579e-005,1.356711e-005
1.296000e+000,-1.191730e-005,1.356492e-005
1.296794e+000,-9.735256e-006,1.357158e-005
1.297588e+000,-5.035477e-006,1.356874e-005
1.298382e+000,-2.517739e-006,1.355941e-005
1.299176e+000,8.392462e-007,1.354439e-005
1.299971e+000,-5.539025e-006,1.352164e-005
1.300765e+000,-7.217518e-006,1.349895e-005
1.301559e+000,-6.210422e-006,1.348107e-005
1.302353e+000,-7.888914e-006,1.345682e-005
1.303147e+000,-1.225299e-005,1.344009e-005
1.303941e+000,-1.158160e-005,1.340897e-005
1.304735e+000,-9.903105e-006,1.339076e-005
1.305529e+000,-6.210422e-006,1.337588e-005
1.306324e+000,-7.217518e-006,1.335622e-005
1.307118e+000,-8.224612e-006,1.333928e-005
1.307912e+000,-1.225299e-005,1.332741e-005
1.308706e+000,-1.057450e-005,1.332641e-005
1.309500e+000,-1.023880e-005,1.330677e-005
1.310294e+000,-1.242084e-005,1.329260e-005
1.311088e+000,-1.242084e-005,1.328435e-005
1.311882e+000,-9.567407e-006,1.328484e-005
1.312676e+000,-8.224612e-006,1.327782e-005
1.313471e+000,-9.567407e-006,1.326984e-005
1.314265e+000,-8.896010e-006,1.326180e-005
1.315059e+000,-1.174945e-005,1.323880e-005
1.315853e+000,-8.224612e-006,1.322856e-005
1.316647e+000,-9.567407e-006,1.322055e-005
1.317441e+000,-1.225299e-005,1.322055e-005
1.318235e+000,-1.225299e-005,1.321852e-005
1.319029e+000,-1.124590e-005,1.321542e-005
1.319824e+000,-9.735256e-006,1.321450e-005
1.320618e+000,-1.158160e-005,1.320138e-005
1.321412e+000,-1.460288e-005,1.318424e-005
1.322206e+000,-1.258869e-005,1.316654e-005
1.323000e+000,-1.359579e-005,1.315230e-005
1.323794e+000,-1.174945e-005,1.314886e-005
1.324588e+000,-9.903105e-006,1.314740e-005
1.325382e+000,-7.217518e-006,1.315926e-005
1.326176e+000,-8.224612e-006,1.316138e-005
1.326971e+000,-7.553216e-006,1.316955e-005
1.327765e+000,-8.392462e-006,1.317318e-005
1.328559e+000,-1.023880e-005,1.315285e-005
1.329353e+000,-8.224612e-006,1.309567e-005
1.330147e+000,-1.023880e-005,1.299125e-005
1.330941e+000,-5.539025e-006,1.284061e-005
1.331735e+000,-6.881819e-006,1.265338e-005
1.332529e+000,-7.553216e-006,1.246547e-005
1.333324e+000,-8.560311e-006,1.233237e-005
1.334118e+000,-1.225299e-005,1.227342e-005
1.334912e+000,-1.023880e-005,1.225706e-005
1.335706e+000,-9.903105e-006,1.224606e-005
1.336500e+000,-1.174945e-005,1.223595e-005
1.337294e+000,-1.158160e-005,1.223103e-005
1.338088e+000,-1.242084e-005,1.222322e-005
1.338882e+000,-1.443504e-005,1.222376e-005
1.339676e+000,-1.091020e-005,1.224135e-005
1.340471e+000,-1.091020e-005,1.225067e-005
1.341265e+000,-1.359579e-005,1.225937e-005
1.342059e+000,-1.225299e-005,1.227984e-005
1.342853e+000,-1.040665e-005,1.229900e-005
1.343647e+000,-1.057450e-005,1.231219e-005
1.344441e+000,-1.326009e-005,1.232603e-005
1.345235e+000,-1.527428e-005,1.234829e-005
1.346029e+000,-1.443504e-005,1.237529e-005
1.346824e+000,-1.728847e-005,1.239764e-005
1.347618e+000,-1.628138e-005,1.242866e-005
1.348412e+000,-1.829557e-005,1.245652e-005
1.349206e+000,-1.863127e-005,1.249260e-005
1.350000e+000,-1.728847e-005,1.251972e-005
1.350794e+000,-1.963836e-005,1.254016e-005
1.351588e+000,-2.047761e-005,1.257397e-005
1.352382e+000,-2.165255e-005,1.261053e-005
1.353176e+000,-2.265965e-005,1.265462e-005
1.353971e+000,-2.182040e-005,1.270226e-005
1.354765e+000,-2.098116e-005,1.275531e-005
1.355559e+000,-2.198825e-005,1.280426e-005
1.356353e+000,-1.963836e-005,1.285947e-005
1.357147e+000,-1.863127e-005,1.290129e-005
1.357941e+000,-1.628138e-005,1.293395e-005
1.358735e+000,-1.292439e-005,1.295683e-005
1.359529e+000,-1.057450e-005,1.296610e-005
1.360324e+000,-6.881819e-006,1.296820e-005
1.361118e+000,-9.735256e-006,1.296429e-005
1.361912e+000,-8.224612e-006,1.297067e-005
1.362706e+000,-8.392462e-006,1.297424e-005
1.363500e+000,-1.225299e-005,1.296827e-005
1.364294e+000,-1.091020e-005,1.295930e-005
1.365088e+000,-1.393149e-005,1.294134e-005
1.365882e+000,-1.359579e-005,1.292844e-005
1.366676e+000,-1.292439e-005,1.292119e-005
1.367471e+000,-1.527428e-005,1.292525e-005
1.368265e+000,-1.493858e-005,1.293649e-005
1.369059e+000,-1.728847e-005,1.294121e-005
1.369853e+000,-1.661708e-005,1.295409e-005
1.370647e+000,-1.527428e-005,1.296531e-005
1.371441e+000,-1.393149e-005,1.297345e-005
1.372235e+000,-1.493858e-005,1.298174e-005
1.373029e+000,-1.644922e-005,1.299070e-005
1.373824e+000,-1.493858e-005,1.301263e-005
1.374618e+000,-1.057450e-005,1.302710e-005
1.375412e+000,-1.258869e-005,1.302139e-005
1.376206e+000,-1.124590e-005,1.302241e-005
1.377000e+000,-1.225299e-005,1.302148e-005
1.377794e+000,-1.493858e-005,1.302483e-005
1.378588e+000,-1.326009e-005,1.303755e-005
1.379382e+000,-1.023880e-005,1.305007e-005
1.380176e+000,-1.158160e-005,1.305007e-005
1.380971e+000,-1.225299e-005,1.305818e-005
1.381765e+000,-1.493858e-005,1.307042e-005
1.382559e+000,-1.393149e-005,1.307932e-005
1.383353e+000,-1.225299e-005,1.307816e-005
1.384147e+000,-1.158160e-005,1.308326e-005
1.384941e+000,-1.426719e-005,1.308326e-005
1.385735e+000,-1.527428e-005,1.309354e-005
1.386529e+000,-1.124590e-005,1.310365e-005
1.387324e+000,-9.567407e-006,1.309976e-005
1.388118e+000,-1.091020e-005,1.308614e-005
1.388912e+000,-1.124590e-005,1.306967e-005
1.389706e+000,-9.567407e-006,1.306028e-005
1.390500e+000,-9.903105e-006,1.304661e-005
1.391294e+000,-9.903105e-006,1.303134e-005
1.392088e+000,-9.903105e-006,1.301353e-005
1.392882e+000,-8.224612e-006,1.299697e-005
1.393676e+000,-8.224612e-006,1.297002e-005
1.394471e+000,-7.553216e-006,1.295092e-005
1.395265e+000,-6.546120e-006,1.293738e-005
1.396059e+000,-4.867628e-006,1.292755e-005
1.396853e+000,-5.539025e-006,1.290988e-005
1.397647e+000,-9.567407e-006,1.288854e-005
1.398441e+000,-1.174945e-005,1.287701e-005
1.399235e+000,-1.023880e-005,1.287551e-005
1.400029e+000,-1.158160e-005,1.286447e-005
1.400824e+000,-1.292439e-005,1.285819e-005
1.401618e+000,-1.225299e-005,1.285367e-005
1.402412e+000,-6.881819e-006,1.284208e-005
1.403206e+000,-6.210422e-006,1.281706e-005
1.404000e+000,-6.881819e-006,1.279654e-005
1.404794e+000,-6.881819e-006,1.276664e-005
1.405588e+000,-1.091020e-005,1.274469e-005
1.406382e+000,-1.292439e-005,1.272643e-005
1.407176e+000,-1.728847e-005,1.271941e-005
1.407971e+000,-1.695277e-005,1.273590e-005
1.408765e+000,-1.795987e-005,1.274872e-005
1.409559e+000,-1.560998e-005,1.277411e-005
1.410353e+000,-1.225299e-005,1.278678e-005
1.411147e+000,-1.795987e-005,1.277108e-005
1.411941e+000,-1.863127e-005,1.278284e-005
1.412735e+000,-1.393149e-005,1.280416e-005
1.413529e+000,-1.594568e-005,1.280911e-005
1.414324e+000,-1.728847e-005,1.282205e-005
1.415118e+000,-1.829557e-005,1.284391e-005
1.415912e+000,-1.896696e-005,1.286468e-005
1.416706e+000,-1.644922e-005,1.288851e-005
1.417500e+000,-1.426719e-005,1.289437e-005
1.418294e+000,-1.443504e-005,1.290096e-005
1.419088e+000,-1.376364e-005,1.292024e-005
1.419882e+000,-1.225299e-005,1.293230e-005
1.420676e+000,-1.191730e-005,1.293427e-005
1.421471e+000,-1.091020e-005,1.292786e-005
1.422265e+000,-9.567407e-006,1.290424e-005
1.423059e+000,-9.567407e-006,1.288004e-005
1.423853e+000,-9.063859e-006,1.286376e-005
1.424647e+000,-1.158160e-005,1.285431e-005
1.425441e+000,-1.225299e-005,1.285023e-005
1.426235e+000,-1.493858e-005,1.285222e-005
1.427029e+000,-1.493858e-005,1.286687e-005
1.427824e+000,-1.107805e-005,1.288315e-005
1.428618e+000,-1.225299e-005,1.288700e-005
1.429412e+000,-8.896010e-006,1.289260e-005
1.430206e+000,-5.539025e-006,1.287954e-005
1.431000e+000,-5.539025e-006,1.286373e-005
1.431794e+000,-3.860533e-006,1.286349e-005
1.432588e+000,-4.196231e-006,1.285696e-005
1.433382e+000,-1.678492e-006,1.285143e-005
1.434176e+000,-2.182040e-006,1.284471e-005
1.434971e+000,-2.517739e-006,1.283823e-005
1.435765e+000,-1.510643e-006,1.283062e-005
1.436559e+000,-5.874723e-006,1.282710e-005
1.437353e+000,-8.224612e-006,1.282844e-005
1.438147e+000,-4.196231e-006,1.282701e-005
1.438941e+000,-7.553216e-006,1.282080e-005
1.439735e+000,-9.903105e-006,1.282142e-005
1.440529e+000,-1.023880e-005,1.282931e-005
1.441324e+000,-1.091020e-005,1.283753e-005
1.442118e+000,-1.158160e-005,1.284642e-005
1.442912e+000,-1.393149e-005,1.285597e-005
1.443706e+000,-1.829557e-005,1.286526e-005
1.444500e+000,-1.560998e-005,1.287906e-005
1.445294e+000,-1.695277e-005,1.287841e-005
1.446088e+000,-1.930266e-005,1.289735e-005
1.446882e+000,-2.165255e-005,1.292862e-005
1.447676e+000,-2.081331e-005,1.297071e-005
1.448471e+000,-2.064546e-005,1.301179e-005
1.449265e+000,-2.165255e-005,1.303783e-005
1.450059e+000,-2.030976e-005,1.306530e-005
1.450853e+000,-1.896696e-005,1.309724e-005
1.451647e+000,-1.661708e-005,1.312168e-005
1.452441e+000,-1.560998e-005,1.313843e-005
1.453235e+000,-1.594568e-005,1.314271e-005
1.454029e+000,-1.359579e-005,1.314885e-005
1.454824e+000,-8.896010e-006,1.314885e-005
1.455618e+000,-8.224612e-006,1.312361e-005
1.456412e+000,-1.158160e-005,1.309264e-005
1.457206e+000,-1.091020e-005,1.305874e-005
1.458000e+000,-9.903105e-006,1.303536e-005
1.458794e+000,-6.881819e-006,1.302128e-005
1.459588e+000,-5.539025e-006,1.300664e-005
1.460382e+000,-5.539025e-006,1.297924e-005
1.461176e+000,-3.860533e-006,1.295308e-005
1.461971e+000,-4.867628e-006,1.292620e-005
1.462765e+000,-7.217518e-006,1.290036e-005
1.463559e+000,-7.553216e-006,1.287860e-005
1.464353e+000,-8.560311e-006,1.285285e-005
1.465147e+000,-9.231709e-006,1.283670e-005
1.465941e+000,-8.560311e-006,1.281958e-005
1.466735e+000,-9.231709e-006,1.279296e-005
1.467529e+000,-1.191730e-005,1.276917e-005
1.468324e+000,-1.510643e-005,1.275244e-005
1.469118e+000,-1.225299e-005,1.275051e-005
1.469912e+000,-1.292439e-005,1.273816e-005
1.470706e+000,-1.762417e-005,1.272311e-005
1.471500e+000,-1.863127e-005,1.274106e-005
1.472294e+000,-2.198825e-005,1.276566e-005
1.473088e+000,-1.829557e-005,1.280717e-005
1.473882e+000,-1.762417e-005,1.282579e-005
1.474676e+000,-2.030976e-005,1.284570e-005
1.475471e+000,-1.829557e-005,1.288016e-005
1.476265e+000,-1.795987e-005,1.290034e-005
1.477059e+000,-1.426719e-005,1.290942e-005
1.477853e+000,-1.762417e-005,1.290575e-005
1.478647e+000,-2.047761e-005,1.292553e-005
1.479441e+000,-2.232395e-005,1.296156e-005
1.480235e+000,-2.030976e-005,1.301065e-005
1.481029e+000,-1.393149e-005,1.305344e-005
1.481824e+000,-1.091020e-005,1.306595e-005
1.482618e+000,-1.258869e-005,1.306768e-005
1.483412e+000,-1.225299e-005,1.306663e-005
1.484206e+000,-1.393149e-005,1.306350e-005
1.485000e+000,-1.124590e-005,1.307822e-005
1.485794e+000,-7.553216e-006,1.307867e-005
1.486588e+000,-1.023880e-005,1.306311e-005
1.487382e+000,-9.567407e-006,1.305857e-005
1.488176e+000,-7.553216e-006,1.305695e-005
1.488971e+000,-5.874723e-006,1.305112e-005
1.489765e+000,-6.378271e-006,1.303701e-005
1.490559e+000,-6.546120e-006,1.302462e-005
1.491353e+000,-7.888914e-006,1.302019e-005
1.492147e+000,-7.888914e-006,1.300841e-005
1.492941e+000,-8.224612e-006,1.299558e-005
1.493735e+000,-7.553216e-006,1.298444e-005
1.494529e+000,-8.224612e-006,1.296987e-005
1.495324e+000,-8.224612e-006,1.295547e-005
1.496118e+000,-9.567407e-006,1.294533e-005
1.496912e+000,-1.057450e-005,1.294194e-005
1.497706e+000,-8.224612e-006,1.294280e-005
1.498500e+000,-1.091020e-005,1.293648e-005
1.499294e+000,-1.393149e-005,1.293906e-005
1.500088e+000,-1.091020e-005,1.295004e-005
1.500882e+000,-9.903105e-006,1.294770e-005
1.501676e+000,-1.258869e-005,1.293868e-005
1.502471e+000,-1.225299e-005,1.293430e-005
1.503265e+000,-1.493858e-005,1.293327e-005
1.504059e+000,-1.493858e-005,1.293449e-005
1.504853e+000,-1.292439e-005,1.293921e-005
1.505647e+000,-1.292439e-005,1.293471e-005
1.506441e+000,-1.242084e-005,1.293628e-005
1.507235e+000,-1.359579e-005,1.293471e-005
1.508029e+000,-1.695277e-005,1.293796e-005
1.508824e+000,-1.577783e-005,1.295484e-005
1.509618e+000,-1.577783e-005,1.296698e-005
1.510412e+000,-1.728847e-005,1.297911e-005
1.511206e+000,-1.560998e-005,1.298715e-005
1.512000e+000,-1.728847e-005,1.299654e-005
1.512794e+000,-1.795987e-005,1.301269e-005
1.513588e+000,-1.628138e-005,1.303170e-005
1.514382e+000,-1.661708e-005,1.305289e-005
1.515176e+000,-1.443504e-005,1.307377e-005
1.515971e+000,-1.225299e-005,1.308281e-005
1.516765e+000,-1.057450e-005,1.308075e-005
1.517559e+000,-1.258869e-005,1.307943e-005
1.518353e+000,-1.359579e-005,1.308332e-005
1.519147e+000,-1.225299e-005,1.308853e-005
1.519941e+000,-1.493858e-005,1.309362e-005
1.520735e+000,-1.309224e-005,1.311252e-005
1.521529e+000,-1.225299e-005,1.312102e-005
1.522324e+000,-1.225299e-005,1.312296e-005
1.523118e+000,-1.023880e-005,1.312583e-005
1.523912e+000,-1.158160e-005,1.312583e-005
1.524706e+000,-1.359579e-005,1.312487e-005
1.525500e+000,-1.510643e-005,1.312375e-005
1.526294e+000,-1.359579e-005,1.311517e-005
1.527088e+000,-1.292439e-005,1.308413e-005
1.527882e+000,-1.258869e-005,1.304556e-005
1.528676e+000,-9.567407e-006,1.300401e-005
1.529471e+000,-8.224612e-006,1.296296e-005
1.530265e+000,-1.225299e-005,1.293594e-005
1.531059e+000,-9.567407e-006,1.292178e-005
1.531853e+000,-6.881819e-006,1.291028e-005
1.532647e+000,-1.158160e-005,1.289957e-005
1.533441e+000,-1.091020e-005,1.290052e-005
1.534235e+000,-1.225299e-005,1.289865e-005
1.535029e+000,-1.577783e-005,1.290424e-005
1.535824e+000,-1.158160e-005,1.292285e-005
1.536618e+000,-9.063859e-006,1.292088e-005
1.537412e+000,-1.359579e-005,1.291447e-005
1.538206e+000,-8.896010e-006,1.291216e-005
1.539000e+000,-6.546120e-006,1.288921e-005
1.539794e+000,-9.903105e-006,1.284514e-005
1.540588e+000,-9.567407e-006,1.280525e-005
1.541382e+000,-1.158160e-005,1.278761e-005
1.542176e+000,-1.359579e-005,1.277776e-005
1.542971e+000,-1.057450e-005,1.277542e-005
1.543765e+000,-8.224612e-006,1.276399e-005
1.544559e+000,-1.124590e-005,1.274702e-005
1.545353e+000,-9.903105e-006,1.273973e-005
1.546147e+000,-1.292439e-005,1.273423e-005
1.546941e+000,-1.426719e-005,1.274326e-005
1.547735e+000,-1.762417e-005,1.276551e-005
1.548529e+000,-1.930266e-005,1.280341e-005
1.549324e+000,-1.762417e-005,1.284958e-005
1.550118e+000,-1.829557e-005,1.288422e-005
1.550912e+000,-1.359579e-005,1.291910e-005
1.551706e+000,-1.326009e-005,1.293712e-005
1.552500e+000,-1.426719e-005,1.295110e-005
1.553294e+000,-1.359579e-005,1.295766e-005
1.554088e+000,-1.258869e-005,1.296389e-005
1.554882e+000,-1.309224e-005,1.297131e-005
1.555676e+000,-1.225299e-005,1.298761e-005
1.556471e+000,-1.091020e-005,1.299962e-005
1.557265e+000,-1.040665e-005,1.300591e-005
1.558059e+000,-8.896010e-006,1.300079e-005
1.558853e+000,-1.091020e-005,1.299679e-005
1.559647e+000,-1.628138e-005,1.299853e-005
1.560441e+000,-1.393149e-005,1.301209e-005
1.561235e+000,-1.292439e-005,1.301696e-005
1.562029e+000,-1.359579e-005,1.302620e-005
1.562824e+000,-1.023880e-005,1.304052e-005
1.563618e+000,-9.567407e-006,1.304214e-005
1.564412e+000,-6.881819e-006,1.304365e-005
1.565206e+000,-6.210422e-006,1.303258e-005
1.566000e+000,-9.567407e-006,1.302902e-005
1.566794e+000,-1.225299e-005,1.302902e-005
1.567588e+000,-1.560998e-005,1.302902e-005
1.568382e+000,-1.091020e-005,1.304045e-005
1.569176e+000,-1.091020e-005,1.303954e-005
1.569971e+000,-8.224612e-006,1.304251e-005
1.570765e+000,-8.560311e-006,1.303438e-005
1.571559e+000,-8.392462e-006,1.301727e-005
1.572353e+000,-7.553216e-006,1.300650e-005
1.573147e+000,-1.023880e-005,1.299084e-005
1.573941e+000,-9.903105e-006,1.298677e-005
1.574735e+000,-8.224612e-006,1.298677e-005
1.575529e+000,-1.057450e-005,1.298868e-005
1.576324e+000,-8.392462e-006,1.299409e-005
1.577118e+000,-8.224612e-006,1.299573e-005
1.577912e+000,-9.567407e-006,1.299539e-005
1.578706e+000,-1.158160e-005,1.299376e-005
1.579500e+000,-1.107805e-005,1.300191e-005
1.580294e+000,-1.493858e-005,1.300410e-005
1.581088e+000,-1.225299e-005,1.302765e-005
1.581882e+000,-1.091020e-005,1.304020e-005
1.582676e+000,-1.091020e-005,1.304777e-005
1.583471e+000,-8.896010e-006,1.305335e-005
1.584265e+000,-9.903105e-006,1.304469e-005
1.585059e+000,-1.225299e-005,1.304386e-005
1.585853e+000,-1.158160e-005,1.305022e-005
1.586647e+000,-1.091020e-005,1.304974e-005
1.587441e+000,-1.225299e-005,1.304790e-005
1.588235e+000,-1.242084e-005,1.304739e-005
1.589029e+000,-1.225299e-005,1.304079e-005
1.589824e+000,-1.426719e-005,1.304459e-005
1.590618e+000,-1.359579e-005,1.305490e-005
1.591412e+000,-1.225299e-005,1.305490e-005
1.592206e+000,-9.567407e-006,1.305490e-005
1.593000e+000,-8.224612e-006,1.305285e-005
1.593794e+000,-1.023880e-005,1.304746e-005
1.594588e+000,-1.225299e-005,1.303880e-005
1.595382e+000,-1.359579e-005,1.302864e-005
1.596176e+000,-1.326009e-005,1.302576e-005
1.596971e+000,-1.426719e-005,1.301071e-005
1.597765e+000,-1.913481e-005,1.300317e-005
1.598559e+000,-1.762417e-005,1.300702e-005
1.599353e+000,-1.762417e-005,1.300255e-005
1.600147e+000,-1.728847e-005,1.300399e-005
1.600941e+000,-1.661708e-005,1.299336e-005
1.601735e+000,-1.560998e-005,1.297579e-005
1.602529e+000,-1.326009e-005,1.294813e-005
1.603324e+000,-1.292439e-005,1.290654e-005
1.604118e+000,-1.560998e-005,1.286835e-005
1.604912e+000,-1.393149e-005,1.284401e-005
1.605706e+000,-1.460288e-005,1.280808e-005
1.606500e+000,-1.527428e-005,1.278663e-005
1.607294e+000,-1.560998e-005,1.277245e-005
1.608088e+000,-1.560998e-005,1.276978e-005
1.608882e+000,-1.695277e-005,1.277933e-005
1.609676e+000,-1.460288e-005,1.280119e-005
1.610471e+000,-1.527428e-005,1.282180e-005
1.611265e+000,-1.779202e-005,1.283900e-005
1.612059e+000,-1.326009e-005,1.286983e-005
1.612853e+000,-1.091020e-005,1.288287e-005
1.613647e+000,-1.258869e-005,1.287902e-005
1.614441e+000,-1.057450e-005,1.288390e-005
1.615235e+000,-9.231709e-006,1.287372e-005
1.616029e+000,-9.903105e-006,1.286140e-005
1.616824e+000,-1.023880e-005,1.285285e-005
1.617618e+000,-1.091020e-005,1.283693e-005
1.618412e+000,-1.258869e-005,1.282400e-005
1.619206e+000,-1.326009e-005,1.280656e-005
1.620000e+000,-1.527428e-005,1.279408e-005
1.620794e+000,-1.292439e-005,1.279408e-005
1.621588e+000,-9.231709e-006,1.279071e-005
1.622382e+000,-9.903105e-006,1.277353e-005
1.623176e+000,-9.063859e-006,1.275201e-005
1.623971e+000,-8.560311e-006,1.273439e-005
1.624765e+000,-9.903105e-006,1.272957e-005
1.625559e+000,-1.057450e-005,1.272201e-005
1.626353e+000,-1.225299e-005,1.272017e-005
1.627147e+000,-8.896010e-006,1.272017e-005
1.627941e+000,-9.903105e-006,1.270213e-005
1.628735e+000,-1.225299e-005,1.269238e-005
1.629529e+000,-1.191730e-005,1.269806e-005
1.630324e+000,-1.124590e-005,1.269905e-005
1.631118e+000,-1.258869e-005,1.269608e-005
1.631912e+000,-1.225299e-005,1.268797e-005
1.632706e+000,-1.225299e-005,1.268245e-005
1.633500e+000,-1.560998e-005,1.268245e-005
1.634294e+000,-1.460288e-005,1.269620e-005
1.635088e+000,-1.628138e-005,1.269741e-005
1.635882e+000,-1.426719e-005,1.270140e-005
1.636676e+000,-1.023880e-005,1.271106e-005
1.637471e+000,-1.057450e-005,1.271272e-005
1.638265e+000,-1.158160e-005,1.271182e-005
1.639059e+000,-1.225299e-005,1.271278e-005
1.639853e+000,-1.292439e-005,1.272012e-005
1.640647e+000,-1.124590e-005,1.272875e-005
1.641441e+000,-8.224612e-006,1.273230e-005
1.642235e+000,-8.896010e-006,1.272849e-005
1.643029e+000,-1.426719e-005,1.272993e-005
1.643824e+000,-1.594568e-005,1.274692e-005
1.644618e+000,-1.393149e-005,1.277153e-005
1.645412e+000,-1.393149e-005,1.279038e-005
1.646206e+000,-1.460288e-005,1.281157e-005
1.647000e+000,-1.426719e-005,1.283424e-005
1.647794e+000,-1.359579e-005,1.284813e-005
1.648588e+000,-1.426719e-005,1.285393e-005
1.649382e+000,-1.393149e-005,1.286616e-005
1.650176e+000,-1.225299e-005,1.287357e-005
1.650971e+000,-9.567407e-006,1.287148e-005
1.651765e+000,-1.023880e-005,1.286423e-005
1.652559e+000,-1.091020e-005,1.287134e-005
1.653353e+000,-8.560311e-006,1.288129e-005
1.654147e+000,-9.063859e-006,1.288450e-005
1.654941e+000,-1.158160e-005,1.288880e-005
1.655735e+000,-1.225299e-005,1.289066e-005
1.656529e+000,-1.292439e-005,1.288857e-005
1.657324e+000,-1.393149e-005,1.287227e-005
1.658118e+000,-1.292439e-005,1.286073e-005
1.658912e+000,-1.443504e-005,1.284146e-005
1.659706e+000,-1.661708e-005,1.283708e-005
1.660500e+000,-1.695277e-005,1.285270e-005
1.661294e+000,-1.762417e-005,1.284834e-005
1.662088e+000,-1.762417e-005,1.284381e-005
1.662882e+000,-1.460288e-005,1.285825e-005
1.663676e+000,-1.426719e-005,1.285317e-005
1.664471e+000,-1.359579e-005,1.284135e-005
1.665265e+000,-1.292439e-005,1.282276e-005
1.666059e+000,-1.426719e-005,1.279880e-005
1.666853e+000,-1.225299e-005,1.279046e-005
1.667647e+000,-9.567407e-006,1.278381e-005
1.668441e+000,-6.881819e-006,1.276925e-005
1.669235e+000,-8.224612e-006,1.275152e-005
1.670029e+000,-8.224612e-006,1.274121e-005
1.670824e+000,-8.224612e-006,1.273191e-005
1.671618e+000,-1.158160e-005,1.272549e-005
1.672412e+000,-8.392462e-006,1.273081e-005
1.673206e+000,-8.224612e-006,1.272818e-005
1.674000e+000,-1.057450e-005,1.272636e-005
1.674794e+000,-1.443504e-005,1.272357e-005
1.675588e+000,-1.359579e-005,1.273085e-005
1.676382e+000,-8.560311e-006,1.272606e-005
1.677176e+000,-1.040665e-005,1.270729e-005
1.677971e+000,-1.091020e-005,1.270548e-005
1.678765e+000,-9.567407e-006,1.270159e-005
1.679559e+000,-6.881819e-006,1.270314e-005
1.680353e+000,-8.224612e-006,1.270523e-005
1.681147e+000,-9.903105e-006,1.270986e-005
1.681941e+000,-1.258869e-005,1.272028e-005
1.682735e+000,-1.225299e-005,1.273790e-005
1.683529e+000,-1.057450e-005,1.275630e-005
1.684324e+000,-1.443504e-005,1.276966e-005
1.685118e+000,-1.326009e-005,1.279483e-005
1.685912e+000,-1.158160e-005,1.281641e-005
1.686706e+000,-1.158160e-005,1.282878e-005
1.687500e+000,-1.292439e-005,1.283703e-005
1.688294e+000,-1.695277e-005,1.285555e-005
1.689088e+000,-1.292439e-005,1.288405e-005
1.689882e+000,-1.225299e-005,1.289257e-005
1.690676e+000,-1.225299e-005,1.289817e-005
1.691471e+000,-1.527428e-005,1.290201e-005
1.692265e+000,-1.493858e-005,1.291424e-005
1.693059e+000,-1.443504e-005,1.291783e-005
1.693853e+000,-1.292439e-005,1.290224e-005
1.694647e+000,-1.426719e-005,1.289278e-005
1.695441e+000,-1.225299e-005,1.288242e-005
1.696235e+000,-1.426719e-005,1.285489e-005
1.697029e+000,-1.242084e-005,1.282199e-005
1.697824e+000,-1.258869e-005,1.278730e-005
1.698618e+000,-1.158160e-005,1.275392e-005
1.699412e+000,-1.158160e-005,1.271206e-005
1.700206e+000,-1.242084e-005,1.267714e-005
1.701000e+000,-1.426719e-005,1.265131e-005
1.701794e+000,-1.493858e-005,1.264217e-005
1.702588e+000,-1.493858e-005,1.263959e-005
1.703382e+000,-1.225299e-005,1.263567e-005
1.704176e+000,-1.242084e-005,1.263130e-005
1.704971e+000,-7.888914e-006,1.264076e-005
1.705765e+000,-8.560311e-006,1.264008e-005
1.706559e+000,-8.896010e-006,1.263241e-005
1.707353e+000,-7.553216e-006,1.262738e-005
1.708147e+000,-1.158160e-005,1.262221e-005
1.708941e+000,-9.567407e-006,1.263315e-005
1.709735e+000,-9.231709e-006,1.264082e-005
1.710529e+000,-1.023880e-005,1.264769e-005
1.711324e+000,-7.553216e-006,1.265901e-005
1.712118e+000,-1.359579e-005,1.266320e-005
1.712912e+000,-1.628138e-005,1.267988e-005
1.713706e+000,-1.762417e-005,1.270598e-005
1.714500e+000,-1.527428e-005,1.273569e-005
1.715294e+000,-1.309224e-005,1.275419e-005
1.716088e+000,-9.063859e-006,1.276644e-005
1.716882e+000,-1.040665e-005,1.276606e-005
1.717676e+000,-1.007095e-005,1.276185e-005
1.718471e+000,-1.158160e-005,1.274602e-005
1.719265e+000,-1.493858e-005,1.274402e-005
1.720059e+000,-1.779202e-005,1.275103e-005
1.720853e+000,-1.795987e-005,1.275177e-005
1.721647e+000,-1.493858e-005,1.274870e-005
1.722441e+000,-1.393149e-005,1.271615e-005
1.723235e+000,-1.762417e-005,1.269852e-005
1.724029e+000,-1.426719e-005,1.269852e-005
1.724824e+000,-1.258869e-005,1.267230e-005
1.725618e+000,-1.292439e-005,1.265013e-005
1.726412e+000,-1.292439e-005,1.263054e-005
1.727206e+000,-1.292439e-005,1.262594e-005
1.728000e+000,-1.124590e-005,1.260782e-005
1.728794e+000,-1.124590e-005,1.257077e-005
1.729588e+000,-1.174945e-005,1.252358e-005
1.730382e+000,-1.091020e-005,1.248863e-005
1.731176e+000,-1.359579e-005,1.247906e-005
1.731971e+000,-1.577783e-005,1.248746e-005
1.732765e+000,-1.393149e-005,1.249899e-005
1.733559e+000,-1.359579e-005,1.250458e-005
1.734353e+000,-1.292439e-005,1.250341e-005
1.735147e+000,-1.158160e-005,1.250857e-005
1.735941e+000,-8.560311e-006,1.251838e-005
1.736735e+000,-9.567407e-006,1.251437e-005
1.737529e+000,-1.091020e-005,1.251437e-005
1.738324e+000,-1.023880e-005,1.252225e-005
1.739118e+000,-1.091020e-005,1.253119e-005
1.739912e+000,-8.896010e-006,1.254114e-005
1.740706e+000,-6.881819e-006,1.254575e-005
1.741500e+000,-6.378271e-006,1.254386e-005
1.742294e+000,-9.903105e-006,1.254113e-005
1.743088e+000,-1.057450e-005,1.254499e-005
1.743882e+000,-1.023880e-005,1.255194e-005
1.744676e+000,-1.292439e-005,1.255665e-005
1.745471e+000,-1.359579e-005,1.256925e-005
1.746265e+000,-1.292439e-005,1.258107e-005
1.747059e+000,-1.225299e-005,1.258806e-005
1.747853e+000,-7.888914e-006,1.259849e-005
1.748647e+000,-8.896010e-006,1.259131e-005
1.749441e+000,-9.063859e-006,1.257676e-005
1.750235e+000,-9.231709e-006,1.257209e-005
1.751029e+000,-1.426719e-005,1.257046e-005
1.751824e+000,-1.695277e-005,1.257617e-005
1.752618e+000,-1.930266e-005,1.259354e-005
1.753412e+000,-1.930266e-005,1.261242e-005
1.754206e+000,-1.695277e-005,1.263127e-005
1.755000e+000,-1.644922e-005,1.264643e-005
1.755794e+000,-1.577783e-005,1.265947e-005
1.756588e+000,-1.393149e-005,1.267137e-005
1.757382e+000,-1.091020e-005,1.267253e-005
1.758176e+000,-8.896010e-006,1.265135e-005
1.758971e+000,-1.292439e-005,1.262996e-005
1.759765e+000,-1.359579e-005,1.261963e-005
1.760559e+000,-1.460288e-005,1.260524e-005
1.761353e+000,-1.460288e-005,1.260139e-005
1.762147e+000,-1.460288e-005,1.259056e-005
1.762941e+000,-1.493858e-005,1.257673e-005
1.763735e+000,-1.527428e-005,1.257142e-005
1.764529e+000,-1.359579e-005,1.256600e-005
1.765324e+000,-1.158160e-005,1.256301e-005
1.766118e+000,-1.158160e-005,1.256099e-005
1.766912e+000,-1.225299e-005,1.256381e-005
1.767706e+000,-1.158160e-005,1.256276e-005
1.768500e+000,-1.359579e-005,1.255633e-005
1.769294e+000,-1.393149e-005,1.256073e-005
1.770088e+000,-1.393149e-005,1.255704e-005
1.770882e+000,-1.460288e-005,1.255992e-005
1.771676e+000,-1.426719e-005,1.256792e-005
1.772471e+000,-1.292439e-005,1.257468e-005
1.773265e+000,-1.426719e-005,1.258256e-005
1.774059e+000,-1.309224e-005,1.259134e-005
1.774853e+000,-9.567407e-006,1.258964e-005
1.775647e+000,-6.881819e-006,1.257234e-005
1.776441e+000,-1.091020e-005,1.255492e-005
1.777235e+000,-8.560311e-006,1.254883e-005
1.778029e+000,-9.567407e-006,1.253801e-005
1.778824e+000,-1.091020e-005,1.253801e-005
1.779618e+000,-1.158160e-005,1.254454e-005
1.780412e+000,-1.309224e-005,1.254250e-005
1.781206e+000,-1.292439e-005,1.255264e-005
1.782000e+000,-1.460288e-005,1.256781e-005
1.782794e+000,-1.527428e-005,1.257783e-005
1.783588e+000,-1.493858e-005,1.259229e-005
1.784382e+000,-1.225299e-005,1.260152e-005
1.785176e+000,-1.158160e-005,1.258903e-005
1.785971e+000,-1.443504e-005,1.258903e-005
1.786765e+000,-1.158160e-005,1.260499e-005
1.787559e+000,-1.057450e-005,1.259858e-005
1.788353e+000,-8.224612e-006,1.260271e-005
1.789147e+000,-8.224612e-006,1.260584e-005
1.789941e+000,-5.874723e-006,1.260200e-005
1.790735e+000,-8.392462e-006,1.259479e-005
1.791529e+000,-9.735256e-006,1.258673e-005
1.792324e+000,-1.023880e-005,1.257533e-005
1.793118e+000,-1.359579e-005,1.257445e-005
1.793912e+000,-9.063859e-006,1.258928e-005
1.794706e+000,-1.023880e-005,1.258367e-005
1.795500e+000,-1.275654e-005,1.258453e-005
1.796294e+000,-1.225299e-005,1.258398e-005
1.797088e+000,-9.567407e-006,1.257722e-005
1.797882e+000,-9.231709e-006,1.254946e-005
1.798676e+000,-1.426719e-005,1.251294e-005
1.799471e+000,-1.359579e-005,1.249931e-005
1.800265e+000,-1.057450e-005,1.248020e-005
1.801059e+000,-1.225299e-005,1.247088e-005
1.801853e+000,-1.040665e-005,1.246760e-005
1.802647e+000,-1.040665e-005,1.245542e-005
1.803441e+000,-1.174945e-005,1.244563e-005
1.804235e+000,-1.292439e-005,1.244302e-005
1.805029e+000,-1.158160e-005,1.244246e-005
1.805824e+000,-9.903105e-006,1.244041e-005
1.806618e+000,-1.007095e-005,1.243773e-005
1.807412e+000,-1.393149e-005,1.243685e-005
1.808206e+000,-1.460288e-005,1.245156e-005
1.809000e+000,-1.309224e-005,1.246360e-005
1.809794e+000,-1.426719e-005,1.245163e-005
1.810588e+000,-1.359579e-005,1.245284e-005
1.811382e+000,-1.309224e-005,1.245512e-005
1.812176e+000,-1.460288e-005,1.245340e-005
1.812971e+000,-1.443504e-005,1.246725e-005
1.813765e+000,-1.426719e-005,1.248216e-005
1.814559e+000,-1.577783e-005,1.250207e-005
1.815353e+000,-1.359579e-005,1.252884e-005
1.816147e+000,-1.460288e-005,1.254069e-005
1.816941e+000,-1.359579e-005,1.254870e-005
1.817735e+000,-1.225299e-005,1.254124e-005
1.818529e+000,-9.567407e-006,1.254519e-005
1.819324e+000,-5.539025e-006,1.254170e-005
1.820118e+000,-4.531929e-006,1.253700e-005
1.820912e+000,-3.692683e-006,1.253030e-005
1.821706e+000,-5.539025e-006,1.252308e-005
1.822500e+000,-1.091020e-005,1.251973e-005
1.823294e+000,-1.158160e-005,1.252153e-005
1.824088e+000,-9.567407e-006,1.252612e-005
1.824882e+000,-1.158160e-005,1.252916e-005
1.825676e+000,-1.225299e-005,1.253199e-005
1.826471e+000,-1.258869e-005,1.254211e-005
1.827265e+000,-1.493858e-005,1.255364e-005
1.828059e+000,-1.896696e-005,1.257033e-005
1.828853e+000,-1.930266e-005,1.259887e-005
1.829647e+000,-1.560998e-005,1.263041e-005
1.830441e+000,-1.728847e-005,1.263300e-005
1.831235e+000,-1.493858e-005,1.265174e-005
1.832029e+000,-1.560998e-005,1.266483e-005
1.832824e+000,-1.963836e-005,1.268050e-005
1.833618e+000,-1.762417e-005,1.271893e-005
1.834412e+000,-1.460288e-005,1.274551e-005
1.835206e+000,-1.393149e-005,1.275339e-005
1.836000e+000,-1.510643e-005,1.276088e-005
1.836794e+000,-1.527428e-005,1.277449e-005
1.837588e+000,-1.460288e-005,1.278485e-005
1.838382e+000,-1.393149e-005,1.279220e-005
1.839176e+000,-1.091020e-005,1.279767e-005
1.839971e+000,-9.567407e-006,1.278715e-005
1.840765e+000,-8.896010e-006,1.277552e-005
1.841559e+000,-8.896010e-006,1.276667e-005
1.842353e+000,-9.903105e-006,1.276512e-005
1.843147e+000,-9.567407e-006,1.276892e-005
1.843941e+000,-8.896010e-006,1.276726e-005
1.844735e+000,-9.567407e-006,1.275840e-005
1.845529e+000,-8.224612e-006,1.274675e-005
1.846324e+000,-5.539025e-006,1.273323e-005
1.847118e+000,-3.524834e-006,1.271159e-005
1.847912e+000,-8.896010e-006,1.266720e-005
1.848706e+000,-8.560311e-006,1.263807e-005
1.849500e+000,-1.091020e-005,1.260813e-005
1.850294e+000,-1.326009e-005,1.258540e-005
1.851088e+000,-1.158160e-005,1.257270e-005
1.851882e+000,-1.443504e-005,1.255882e-005
1.852676e+000,-1.510643e-005,1.256295e-005
1.853471e+000,-1.359579e-005,1.257070e-005
1.854265e+000,-1.225299e-005,1.256324e-005
1.855059e+000,-1.527428e-005,1.255767e-005
1.855853e+000,-1.426719e-005,1.256021e-005
1.856647e+000,-1.158160e-005,1.255644e-005
1.857441e+000,-1.292439e-005,1.254254e-005
1.858235e+000,-1.560998e-005,1.253281e-005
1.859029e+000,-1.493858e-005,1.252725e-005
1.859824e+000,-1.225299e-005,1.252852e-005
1.860618e+000,-1.225299e-005,1.251794e-005
1.861412e+000,-1.292439e-005,1.249675e-005
1.862206e+000,-1.225299e-005,1.249563e-005
1.863000e+000,-1.426719e-005,1.249959e-005
1.863794e+000,-1.426719e-005,1.250534e-005
1.864588e+000,-1.527428e-005,1.251701e-005
1.865382e+000,-1.242084e-005,1.253583e-005
1.866176e+000,-8.896010e-006,1.254297e-005
1.866971e+000,-8.896010e-006,1.253971e-005
1.867765e+000,-1.124590e-005,1.253464e-005
1.868559e+000,-1.091020e-005,1.253058e-005
1.869353e+000,-1.141375e-005,1.252336e-005
1.870147e+000,-1.258869e-005,1.251025e-005
1.870941e+000,-1.158160e-005,1.250916e-005
1.871735e+000,-1.393149e-005,1.251538e-005
1.872529e+000,-1.023880e-005,1.252759e-005
1.873324e+000,-1.091020e-005,1.253048e-005
1.874118e+000,-1.762417e-005,1.253629e-005
1.874912e+000,-1.930266e-005,1.256326e-005
1.875706e+000,-1.577783e-005,1.259627e-005
1.876500e+000,-1.560998e-005,1.260875e-005
1.877294e+000,-1.460288e-005,1.262951e-005
1.878088e+000,-1.493858e-005,1.264403e-005
1.878882e+000,-1.527428e-005,1.265322e-005
1.879676e+000,-1.460288e-005,1.266470e-005
1.880471e+000,-1.292439e-005,1.267561e-005
1.881265e+000,-8.560311e-006,1.267668e-005
1.882059e+000,-8.224612e-006,1.266702e-005
1.882853e+000,-7.553216e-006,1.265665e-005
1.883647e+000,-3.524834e-006,1.263315e-005
1.884441e+000,-6.881819e-006,1.260781e-005
1.885235e+000,-8.392462e-006,1.258028e-005
1.886029e+000,-1.091020e-005,1.256342e-005
1.886824e+000,-1.359579e-005,1.256522e-005
1.887618e+000,-1.359579e-005,1.257447e-005
1.888412e+000,-1.292439e-005,1.258089e-005
1.889206e+000,-8.224612e-006,1.258303e-005
1.890000e+000,-7.217518e-006,1.257045e-005
1.890794e+000,-1.158160e-005,1.256102e-005
1.891588e+000,-1.124590e-005,1.256945e-005
1.892382e+000,-1.023880e-005,1.257544e-005
1.893176e+000,-9.903105e-006,1.256294e-005
1.893971e+000,-9.567407e-006,1.254312e-005
1.894765e+000,-1.023880e-005,1.253010e-005
1.895559e+000,-1.426719e-005,1.251875e-005
1.896353e+000,-1.393149e-005,1.251752e-005
1.897147e+000,-1.124590e-005,1.251631e-005
1.897941e+000,-1.376364e-005,1.250888e-005
1.898735e+000,-1.326009e-005,1.250709e-005
1.899529e+000,-1.292439e-005,1.250476e-005
1.900324e+000,-1.393149e-005,1.250692e-005
1.901118e+000,-1.359579e-005,1.251996e-005
1.901912e+000,-1.695277e-005,1.253014e-005
1.902706e+000,-1.829557e-005,1.255152e-005
1.903500e+000,-1.829557e-005,1.258464e-005
1.904294e+000,-1.762417e-005,1.261656e-005
1.905088e+000,-1.712062e-005,1.263881e-005
1.905882e+000,-2.182040e-005,1.265681e-005
1.906676e+000,-2.030976e-005,1.269564e-005
1.907471e+000,-1.258869e-005,1.272300e-005
1.908265e+000,-4.867628e-006,1.272193e-005
1.909059e+000,-1.510643e-006,1.269880e-005
1.909853e+000,-1.510643e-006,1.266441e-005
1.910647e+000,-2.182040e-006,1.262851e-005
1.911441e+000,-3.524834e-006,1.258989e-005
1.912235e+000,-1.091020e-005,1.255211e-005
1.913029e+000,-1.493858e-005,1.254016e-005
1.913824e+000,-1.359579e-005,1.254265e-005
1.914618e+000,-1.560998e-005,1.254265e-005
1.915412e+000,-1.628138e-005,1.255237e-005
1.916206e+000,-1.795987e-005,1.256017e-005
1.917000e+000,-1.443504e-005,1.258202e-005
1.917794e+000,-1.510643e-005,1.259679e-005
1.918588e+000,-1.527428e-005,1.261963e-005
1.919382e+000,-1.225299e-005,1.264052e-005
1.920176e+000,-1.426719e-005,1.265091e-005
1.920971e+000,-1.393149e-005,1.266800e-005
1.921765e+000,-1.544213e-005,1.267553e-005
1.922559e+000,-1.493858e-005,1.269663e-005
1.923353e+000,-1.359579e-005,1.271611e-005
1.924147e+000,-1.292439e-005,1.272526e-005
1.924941e+000,-1.443504e-005,1.272008e-005
1.925735e+000,-1.493858e-005,1.272303e-005
1.926529e+000,-1.493858e-005,1.274177e-005
1.927324e+000,-1.426719e-005,1.275612e-005
1.928118e+000,-1.258869e-005,1.276667e-005
1.928912e+000,-1.091020e-005,1.277501e-005
1.929706e+000,-8.896010e-006,1.278394e-005
1.930500e+000,-8.560311e-006,1.278537e-005
1.931294e+000,-1.057450e-005,1.278229e-005
1.932088e+000,-1.191730e-005,1.277647e-005
1.932882e+000,-1.191730e-005,1.277546e-005
1.933676e+000,-6.881819e-006,1.277922e-005
1.934471e+000,-5.035477e-006,1.275915e-005
1.935265e+000,-9.903105e-006,1.274035e-005
1.936059e+000,-1.023880e-005,1.273584e-005
1.936853e+000,-6.210422e-006,1.273218e-005
1.937647e+000,-6.881819e-006,1.271610e-005
1.938441e+000,-1.091020e-005,1.268601e-005
1.939235e+000,-1.527428e-005,1.267998e-005
1.940029e+000,-1.712062e-005,1.269042e-005
1.940824e+000,-1.292439e-005,1.270835e-005
1.941618e+000,-1.158160e-005,1.270004e-005
1.942412e+000,-1.326009e-005,1.268888e-005
1.943206e+000,-1.409934e-005,1.268479e-005
1.944000e+000,-1.292439e-005,1.268878e-005
1.944794e+000,-1.292439e-005,1.268420e-005
1.945588e+000,-1.393149e-005,1.268632e-005
1.946382e+000,-1.091020e-005,1.268513e-005
1.947176e+000,-1.091020e-005,1.268070e-005
1.947971e+000,-1.091020e-005,1.267575e-005
1.948765e+000,-1.695277e-005,1.267385e-005
1.949559e+000,-1.795987e-005,1.269309e-005
1.950353e+000,-1.359579e-005,1.271419e-005
1.951147e+000,-1.426719e-005,1.271184e-005
1.951941e+000,-1.460288e-005,1.270939e-005
1.952735e+000,-1.493858e-005,1.270814e-005
1.953529e+000,-1.225299e-005,1.271729e-005
1.954324e+000,-1.225299e-005,1.271677e-005
1.955118e+000,-1.158160e-005,1.272778e-005
1.955912e+000,-1.023880e-005,1.273539e-005
1.956706e+000,-7.721065e-006,1.273860e-005
1.957500e+000,-9.063859e-006,1.273892e-005
1.958294e+000,-9.063859e-006,1.273242e-005
1.959088e+000,-1.091020e-005,1.273125e-005
1.959882e+000,-1.124590e-005,1.273547e-005
1.960676e+000,-1.124590e-005,1.273818e-005
1.961471e+000,-9.903105e-006,1.274685e-005
1.962265e+000,-6.378271e-006,1.273601e-005
1.963059e+000,-5.539025e-006,1.270792e-005
1.963853e+000,-6.546120e-006,1.267280e-005
1.964647e+000,-8.896010e-006,1.264884e-005
1.965441e+000,-1.292439e-005,1.263722e-005
1.966235e+000,-1.225299e-005,1.264792e-005
1.967029e+000,-1.191730e-005,1.265318e-005
1.967824e+000,-1.326009e-005,1.265829e-005
1.968618e+000,-1.560998e-005,1.266353e-005
1.969412e+000,-1.359579e-005,1.266611e-005
1.970206e+000,-1.191730e-005,1.264954e-005
1.971000e+000,-1.795987e-005,1.262680e-005
1.971794e+000,-2.030976e-005,1.263933e-005
1.972588e+000,-1.896696e-005,1.266681e-005
1.973382e+000,-1.829557e-005,1.267299e-005
1.974176e+000,-1.628138e-005,1.268946e-005
1.974971e+000,-1.225299e-005,1.270283e-005
1.975765e+000,-1.326009e-005,1.270071e-005
1.976559e+000,-1.493858e-005,1.270181e-005
1.977353e+000,-1.359579e-005,1.270884e-005
1.978147e+000,-1.493858e-005,1.271616e-005
1.978941e+000,-1.393149e-005,1.272826e-005
1.979735e+000,-1.426719e-005,1.273527e-005
1.980529e+000,-1.426719e-005,1.274583e-005
1.981324e+000,-1.292439e-005,1.274817e-005
1.982118e+000,-1.326009e-005,1.273793e-005
1.982912e+000,-9.567407e-006,1.273565e-005
1.983706e+000,-8.896010e-006,1.272398e-005
1.984500e+000,-1.023880e-005,1.271297e-005
1.985294e+000,-7.553216e-006,1.270930e-005
1.986088e+000,-1.023880e-005,1.270727e-005
1.986882e+000,-1.326009e-005,1.270894e-005
1.987676e+000,-1.376364e-005,1.271605e-005
1.988471e+000,-1.560998e-005,1.272664e-005
1.989265e+000,-1.762417e-005,1.274223e-005
1.990059e+000,-1.930266e-005,1.277112e-005
1.990853e+000,-1.896696e-005,1.281161e-005
1.991647e+000,-1.695277e-005,1.285120e-005
1.992441e+000,-1.762417e-005,1.287464e-005
1.993235e+000,-1.695277e-005,1.289920e-005
1.994029e+000,-1.493858e-005,1.292172e-005
1.994824e+000,-1.292439e-005,1.292863e-005
1.995618e+000,-1.292439e-005,1.292644e-005
1.996412e+000,-1.158160e-005,1.292644e-005
1.997206e+000,-4.531929e-006,1.292447e-005
1.998000e+000,-3.021286e-006,1.291933e-005
1.998794e+000,5.035477e-007,1.291070e-005
1.999588e+000,-5.035477e-007,1.290059e-005
2.000382e+000,1.846342e-006,1.289010e-005
2.001176e+000,-2.182040e-006,1.286535e-005
2.001971e+000,-1.510643e-006,1.283032e-005
2.002765e+000,-3.860533e-006,1.278428e-005
2.003559e+000,-6.881819e-006,1.273965e-005
2.004353e+000,-9.567407e-006,1.270961e-005
2.005147e+000,-9.567407e-006,1.268716e-005
2.005941e+000,-1.225299e-005,1.266739e-005
2.006735e+000,-9.567407e-006,1.266187e-005
2.007529e+000,-1.091020e-005,1.265841e-005
2.008324e+000,-1.174945e-005,1.266342e-005
2.009118e+000,-1.158160e-005,1.265978e-005
2.009912e+000,-1.023880e-005,1.265340e-005
2.010706e+000,-7.049668e-006,1.263975e-005
2.011500e+000,-6.881819e-006,1.261913e-005
2.012294e+000,-8.896010e-006,1.259818e-005
2.013088e+000,-1.225299e-005,1.257996e-005
2.013882e+000,-1.493858e-005,1.256943e-005
2.014676e+000,-1.695277e-005,1.257428e-005
2.015471e+000,-1.829557e-005,1.259368e-005
2.016265e+000,-1.863127e-005,1.261901e-005
2.017059e+000,-2.098116e-005,1.264385e-005
2.017853e+000,-1.963836e-005,1.268233e-005
2.018647e+000,-1.527428e-005,1.270752e-005
2.019441e+000,-1.829557e-005,1.271244e-005
2.020235e+000,-1.628138e-005,1.273004e-005
2.021029e+000,-1.863127e-005,1.273652e-005
2.021824e+000,-1.947051e-005,1.275446e-005
2.022618e+000,-1.493858e-005,1.278091e-005
2.023412e+000,-1.309224e-005,1.278335e-005
2.024206e+000,-1.158160e-005,1.278335e-005
2.025000e+000,-1.225299e-005,1.278866e-005
2.025794e+000,-1.695277e-005,1.280145e-005
2.026588e+000,-1.560998e-005,1.282237e-005
2.027382e+000,-1.527428e-005,1.284352e-005
2.028176e+000,-1.594568e-005,1.286108e-005
2.028971e+000,-1.443504e-005,1.287781e-005
2.029765e+000,-1.695277e-005,1.288699e-005
2.030559e+000,-1.560998e-005,1.290131e-005
2.031353e+000,-1.292439e-005,1.291077e-005
2.032147e+000,-1.359579e-005,1.290507e-005
2.032941e+000,-1.191730e-005,1.289909e-005
2.033735e+000,-1.292439e-005,1.288907e-005
2.034529e+000,-1.091020e-005,1.289116e-005
2.035324e+000,-1.527428e-005,1.288929e-005
2.036118e+000,-1.896696e-005,1.289237e-005
2.036912e+000,-1.393149e-005,1.292021e-005
2.037706e+000,-1.393149e-005,1.293034e-005
2.038500e+000,-1.560998e-005,1.294590e-005
2.039294e+000,-1.292439e-005,1.296754e-005
2.040088e+000,-1.225299e-005,1.298380e-005
2.040882e+000,-1.091020e-005,1.299357e-005
2.041676e+000,-1.225299e-005,1.299654e-005
2.042471e+000,-9.903105e-006,1.300209e-005
2.043265e+000,-9.567407e-006,1.299146e-005
2.044059e+000,-8.224612e-006,1.299261e-005
2.044853e+000,-1.158160e-005,1.298805e-005
2.045647e+000,-1.292439e-005,1.298455e-005
2.046441e+000,-1.091020e-005,1.298662e-005
2.047235e+000,-9.903105e-006,1.298999e-005
2.048029e+000,-7.721065e-006,1.299157e-005
2.048824e+000,-8.896010e-006,1.297391e-005
2.049618e+000,-4.867628e-006,1.296093e-005
2.050412e+000,-5.539025e-006,1.295010e-005
2.051206e+000,-6.210422e-006,1.293540e-005
2.052000e+000,-7.553216e-006,1.292682e-005
2.052794e+000,-8.224612e-006,1.292050e-005
2.053588e+000,-9.903105e-006,1.291182e-005
2.054382e+000,-1.057450e-005,1.290332e-005
2.055176e+000,-9.567407e-006,1.290056e-005
2.055971e+000,-1.091020e-005,1.289975e-005
2.056765e+000,-1.091020e-005,1.290193e-005
2.057559e+000,-1.628138e-005,1.289266e-005
2.058353e+000,-1.091020e-005,1.289906e-005
2.059147e+000,-7.553216e-006,1.289259e-005
2.059941e+000,-1.023880e-005,1.287449e-005
2.060735e+000,-1.040665e-005,1.286459e-005
2.061529e+000,-1.359579e-005,1.285677e-005
2.062324e+000,-1.225299e-005,1.285326e-005
2.063118e+000,-9.567407e-006,1.284604e-005
2.063912e+000,-6.210422e-006,1.283215e-005
2.064706e+000,-8.392462e-006,1.280601e-005
2.065500e+000,-8.560311e-006,1.279178e-005
2.066294e+000,1.846342e-006,1.277434e-005
2.067088e+000,3.189136e-006,1.275171e-005
2.067882e+000,-5.874723e-006,1.273422e-005
2.068676e+000,-1.846342e-005,1.272709e-005
2.069471e+000,-2.702373e-005,1.276584e-005
2.070265e+000,-3.407340e-005,1.285406e-005
2.071059e+000,-3.709468e-005,1.299542e-005
2.071853e+000,-3.541619e-005,1.315924e-005
2.072647e+000,-2.769513e-005,1.329590e-005
2.073441e+000,-2.316319e-005,1.337148e-005
2.074235e+000,-2.232395e-005,1.342437e-005
2.075029e+000,-2.383459e-005,1.346751e-005
2.075824e+000,-2.534523e-005,1.351683e-005
2.076618e+000,-1.762417e-005,1.357372e-005
2.077412e+000,5.539025e-006,1.358397e-005
2.078206e+000,2.500954e-005,1.354535e-005
2.079000e+000,3.205920e-005,1.357504e-005
2.079794e+000,2.534523e-005,1.366671e-005
2.080588e+000,1.728847e-005,1.370667e-005
2.081382e+000,1.292439e-005,1.371547e-005
2.082176e+000,1.930266e-005,1.370657e-005
2.082971e+000,7.049668e-006,1.370505e-005
2.083765e+000,-2.333104e-005,1.367470e-005
2.084559e+000,-5.572595e-005,1.371320e-005
2.085353e+000,-7.469291e-005,1.404719e-005
2.086147e+000,-8.409247e-005,1.464119e-005
2.086941e+000,-5.925078e-005,1.536692e-005
2.087735e+000,-1.158160e-005,1.570489e-005
2.088529e+000,2.131685e-005,1.569881e-005
2.089324e+000,3.608759e-005,1.573279e-005
2.090118e+000,3.054856e-005,1.585486e-005
2.090912e+000,7.553216e-006,1.594041e-005
2.091706e+000,-2.333104e-005,1.593820e-005
2.092500e+000,-5.069047e-005,1.598273e-005
2.093294e+000,-6.630045e-005,1.622773e-005
2.094088e+000,-7.603571e-005,1.664591e-005
2.094882e+000,-7.133593e-005,1.718159e-005
2.095676e+000,-3.508049e-005,1.764080e-005
2.096471e+000,1.963836e-005,1.774879e-005
2.097265e+000,5.052262e-005,1.778224e-005
2.098059e+000,5.220111e-005,1.800237e-005
2.098853e+000,3.743038e-005,1.823541e-005
2.099647e+000,1.896696e-005,1.834701e-005
2.100441e+000,2.517739e-006,1.836297e-005
2.101235e+000,-1.258869e-005,1.835188e-005
2.102029e+000,-2.299535e-005,1.834755e-005
2.102824e+000,-2.635233e-005,1.837362e-005
2.103618e+000,-2.903792e-005,1.841773e-005
2.104412e+000,-2.970932e-005,1.847756e-005
2.105206e+000,-2.702373e-005,1.853343e-005
2.106000e+000,-2.366674e-005,1.857863e-005
2.106794e+000,-2.299535e-005,1.861511e-005
2.107588e+000,-2.249180e-005,1.864603e-005
2.108382e+000,-2.383459e-005,1.866840e-005
2.109176e+000,-1.963836e-005,1.869780e-005
2.109971e+000,-1.326009e-005,1.871785e-005
2.110765e+000,-1.023880e-005,1.872004e-005
2.111559e+000,-1.225299e-005,1.871474e-005
2.112353e+000,-1.326009e-005,1.871474e-005
2.113147e+000,-1.091020e-005,1.871238e-005
2.113941e+000,-1.023880e-005,1.870519e-005
2.114735e+000,-4.531929e-006,1.869425e-005
2.115529e+000,5.035477e-007,1.868285e-005
2.116324e+000,1.510643e-006,1.867613e-005
2.117118e+000,-2.182040e-006,1.866958e-005
2.117912e+000,5.035477e-007,1.865919e-005
2.118706e+000,1.846342e-006,1.864905e-005
2.119500e+000,-2.853437e-006,1.863822e-005
2.120294e+000,-2.853437e-006,1.862537e-005
2.121088e+000,-8.392462e-007,1.861460e-005
2.121882e+000,-4.867628e-006,1.859804e-005
2.122676e+000,-8.896010e-006,1.859110e-005
2.123471e+000,-9.567407e-006,1.858768e-005
2.124265e+000,-1.091020e-005,1.856890e-005
2.125059e+000,-1.225299e-005,1.854715e-005
2.125853e+000,-1.460288e-005,1.853866e-005
2.126647e+000,-1.393149e-005,1.853605e-005
2.127441e+000,-1.359579e-005,1.853440e-005
2.128235e+000,-1.225299e-005,1.853111e-005
2.129029e+000,-1.225299e-005,1.852396e-005
2.129824e+000,-1.326009e-005,1.851854e-005
2.130618e+000,-1.258869e-005,1.851929e-005
2.131412e+000,-1.560998e-005,1.852662e-005
2.132206e+000,-1.661708e-005,1.854174e-005
2.133000e+000,-2.030976e-005,1.856054e-005
2.133794e+000,-2.333104e-005,1.859483e-005
2.134588e+000,-2.165255e-005,1.863735e-005
2.135382e+000,-1.762417e-005,1.867135e-005
2.136176e+000,-1.762417e-005,1.868768e-005
2.136971e+000,-1.661708e-005,1.869840e-005
2.137765e+000,-1.225299e-005,1.870617e-005
2.138559e+000,-1.359579e-005,1.870473e-005
2.139353e+000,-1.560998e-005,1.871471e-005
2.140147e+000,-1.560998e-005,1.873100e-005
2.140941e+000,-1.795987e-005,1.874031e-005
2.141735e+000,-1.896696e-005,1.875696e-005
2.142529e+000,-1.326009e-005,1.877859e-005
2.143324e+000,-8.224612e-006,1.878518e-005
2.144118e+000,-1.409934e-005,1.878316e-005
2.144912e+000,-2.333104e-005,1.879112e-005
2.145706e+000,-2.618448e-005,1.881998e-005
2.146500e+000,-2.433814e-005,1.886152e-005
2.147294e+000,-2.970932e-005,1.890081e-005
2.148088e+000,-3.273060e-005,1.895912e-005
2.148882e+000,-3.591974e-005,1.903418e-005
2.149676e+000,-3.172351e-005,1.912791e-005
2.150471e+000,-2.299535e-005,1.919542e-005
2.151265e+000,-1.896696e-005,1.922393e-005
2.152059e+000,-9.567407e-006,1.922992e-005
2.152853e+000,7.217518e-006,1.920977e-005
2.153647e+000,2.131685e-005,1.918633e-005
2.154441e+000,2.735943e-005,1.919826e-005
2.155235e+000,2.769513e-005,1.923600e-005
2.156029e+000,2.467384e-005,1.926006e-005
2.156824e+000,1.594568e-005,1.927628e-005
2.157618e+000,-7.888914e-006,1.928420e-005
2.158412e+000,-4.145876e-005,1.928738e-005
2.159206e+000,-8.039978e-005,1.942858e-005
2.160000e+000,-9.449913e-005,1.995116e-005
2.160794e+000,-6.596475e-005,2.065123e-005
2.161588e+000,-1.493858e-005,2.098313e-005
2.162382e+000,1.997406e-005,2.099103e-005
2.163176e+000,2.198825e-005,2.100436e-005
2.163971e+000,-1.510643e-006,2.102699e-005
2.164765e+000,-2.299535e-005,2.100870e-005
2.165559e+000,-8.896010e-006,2.102868e-005
2.166353e+000,3.138781e-005,2.101024e-005
2.167147e+000,6.160067e-005,2.106903e-005
2.167941e+000,6.965744e-005,2.133687e-005
2.168735e+000,5.152972e-005,2.167883e-005
2.169529e+000,2.786297e-005,2.186207e-005
2.170324e+000,3.189136e-006,2.190375e-005
2.171118e+000,-1.594568e-005,2.189038e-005
2.171912e+000,-3.004501e-005,2.189152e-005
2.172706e+000,-3.289845e-005,2.194090e-005
2.173500e+000,-3.508049e-005,2.200593e-005
2.174294e+000,-3.776608e-005,2.208276e-005
2.175088e+000,-3.776608e-005,2.217041e-005
2.175882e+000,-3.373770e-005,2.225665e-005
2.176676e+000,-3.709468e-005,2.232203e-005
2.177471e+000,-5.790799e-005,2.240551e-005
2.178265e+000,-6.495765e-005,2.263143e-005
2.179059e+000,-3.608759e-005,2.291812e-005
2.179853e+000,2.098116e-005,2.300295e-005
2.180647e+000,5.757229e-005,2.302834e-005
2.181441e+000,6.092927e-005,2.324875e-005
2.182235e+000,4.213016e-005,2.349202e-005
2.183029e+000,1.863127e-005,2.360244e-005
2.183824e+000,-1.510643e-006,2.362266e-005
2.184618e+000,-2.030976e-005,2.362110e-005
2.185412e+000,-2.970932e-005,2.364229e-005
2.186206e+000,-2.870222e-005,2.369461e-005
2.187000e+000,-2.635233e-005,2.374733e-005
2.187794e+000,-3.591974e-005,2.379068e-005
2.188588e+000,-6.428626e-005,2.386894e-005
2.189382e+000,-1.159838e-004,2.412768e-005
2.190176e+000,-1.794308e-004,2.498105e-005
2.190971e+000,-2.341497e-004,2.694539e-005
2.191765e+000,-2.036011e-004,3.000387e-005
2.192559e+000,-6.797894e-005,3.211993e-005
2.193353e+000,1.092699e-004,3.233842e-005
2.194147e+000,2.307927e-004,3.291302e-005
2.194941e+000,2.531167e-004,3.538883e-005
2.195735e+000,2.086366e-004,3.815481e-005
2.196529e+000,1.294118e-004,3.992541e-005
2.197324e+000,6.143282e-005,4.058319e-005
2.198118e+000,1.426719e-005,4.072634e-005
2.198912e+000,-1.409934e-005,4.072307e-005
2.199706e+000,-2.467384e-005,4.071823e-005
2.200500e+000,-3.038071e-005,4.073481e-005
2.201294e+000,-4.448005e-005,4.076292e-005
2.202088e+000,-5.253681e-005,4.083182e-005
2.202882e+000,-6.143282e-005,4.093063e-005
2.203676e+000,-6.948959e-005,4.107137e-005
2.204471e+000,-6.865034e-005,4.125237e-005
2.205265e+000,-6.562905e-005,4.142874e-005
2.206059e+000,-6.260777e-005,4.158994e-005
2.206853e+000,-5.790799e-005,4.173747e-005
2.207647e+000,-5.287251e-005,4.186209e-005
2.208441e+000,-4.850843e-005,4.196517e-005
2.209235e+000,-3.910887e-005,4.204985e-005
2.210029e+000,-3.105211e-005,4.210295e-005
2.210824e+000,-2.467384e-005,4.213462e-005
2.211618e+000,-2.114900e-005,4.215392e-005
2.212412e+000,-2.047761e-005,4.216928e-005
2.213206e+000,-1.661708e-005,4.218395e-005
2.214000e+000,-1.460288e-005,4.219276e-005
2.214794e+000,-1.359579e-005,4.219782e-005
2.215588e+000,-1.426719e-005,4.219849e-005
2.216382e+000,-1.292439e-005,4.220050e-005
