8.440377200103386e-34
6.210672892303589e-10
4.080997377055736e-09
9.124341200516099e-09
7.981332601942811e-09
-1.3043435893058523e-08
-6.955115113160178e-08
-1.7227268467029242e-07
-3.1923551459315295e-07
-4.892558758278184e-07
-6.392680959928198e-07
-7.074794937856535e-07
-6.232046344819318e-07
-3.226745502142036e-07
2.3156029710716987e-07
1.0314415308291335e-06
2.0090538687806784e-06
3.0316712392546402e-06
3.909672685443282e-06
4.418778212978165e-06
4.335356478862636e-06
3.480626219285159e-06
1.7669596189574075e-06
-7.622405755132436e-07
-3.9080088979606125e-06
-7.314316237258464e-06
-1.0494419938024317e-05
-1.2885672533793783e-05
-1.3928409626188166e-05
-1.3159559189832416e-05
-1.0307527311419605e-05
-5.372555540184643e-06
1.3232475341829667e-06
9.129312620123768e-06
1.7111311629943648e-05
2.414774427897823e-05
2.907067277491692e-05
3.0834726602501436e-05
2.869189281990392e-05
2.2345783986226714e-05
1.2058967956944766e-05
-1.3090159768553265e-06
-1.634732757757205e-05
-3.1226425475236154e-05
-4.390799327567729e-05
-5.240984802529417e-05
-5.5092829876584376e-05
-5.0929939635073904e-05
-3.9716587949142874e-05
-2.2185456933529772e-05
-2.407553382431123e-18
2.4384044927766164e-05
4.7981466450042965e-05
6.763831501434982e-05
8.044773082030565e-05
8.416653376736629e-05
7.75737689943038e-05
6.0716145956616435e-05
3.499733327456045e-05
3.08720784297148e-06
-3.1348900489454486e-05
-6.407535294225242e-05
-9.081654046002231e-05
-0.00010782520913513517
-0.0001124120889177174
-0.00010336110402048744
-8.116632014619299e-05
-4.80484753182837e-05
-7.737842449928078e-06
3.4957526326827313e-05
7.474793563011885e-05
0.0001065468392897914
0.00012615276626409288
0.0001308335025296207
0.00011972780155226827
9.400266997802404e-05
5.673688879744993e-05
1.253951926189138e-05
-3.304965972235103e-05
-7.429814420258179e-05
-0.00010605533528465346
-0.00012445406769410192
-0.0001274372543455617
-0.00011503110441574685
-8.932195391574199e-05
-5.413675240208745e-05
-1.4471443858735623e-05
2.4249792375293053e-05
5.6974295341929834e-05
7.97584470518958e-05
9.032902514133573e-05
8.837959898194108e-05
7.555295035781986e-05
5.510919814546905e-05
3.132962878932094e-05
8.75030064864319e-06
-8.64994845678504e-06
-1.817085844104516e-05
-1.8895307053143624e-05
-1.1882064641932592e-05
9.1422078065734e-19
1.2584539701953074e-05
2.1195699605086875e-05
2.1588553068959e-05
1.0884908306566897e-05
-1.1662972462887397e-05
-4.42314721981831e-05
-8.241532489686728e-05
-0.00011969167886071958
-0.00014832596642853641
-0.00016060985969862713
-0.00015025589681509272
-0.00011373056112796322
-5.129633013701032e-05
3.244218898283429e-05
0.000128633420033061
0.0002249727409523552
0.00030714770069739146
0.0003607800152043302
0.000373617055173892
0.0003376625000217239
0.0002509146434022179
0.00011840818423720428
-4.766891971748356e-05
-0.00022889526526794193
-0.0004025407213902749
-0.0005443132181310393
-0.000631607911197373
-0.0006468376676855815
-0.0005803755862946225
-0.0004326562594653412
-0.00021506520537383948
5.061170022397507e-05
0.0003342210765461329
0.0006005936865064469
0.0008138537887493216
0.0009421644050086602
0.0009622882583397585
0.0008633259845653505
0.0006490631370686667
0.0003385112373930833
-3.555070988829707e-05
-0.0004299660943938607
-0.0007961856880613923
-0.0010862738980844543
-0.0012591901939310545
-0.0012865201799180622
-0.0011568601272201897
-0.000878198526780745
-0.00047787470853562924
-1.2901235897989207e-17
0.0004994374292087672
0.0009592416682522906
0.0013206476955400495
0.001534960757787114
0.0015701876842673644
0.0014157462041097329
0.0010845605079807627
0.000612175273097169
5.2905652040186515e-05
-0.0005265631314070993
-0.0010553596636924036
-0.0014673660444460503
-0.0017097560904560717
-0.0017499978186007361
-0.0015803631143181567
-0.0012192986792435984
-0.0007094185234980425
-0.0001123261363825883
0.0004990964355553887
0.0010499444501750979
0.0014728803529931763
0.0017167854868904739
0.0017533132213584637
0.0015804556164147317
0.0012226339244263906
0.0007272937087911238
0.00015846356964289987
-0.00041184441044064596
-0.0009132140088149545
-0.0012860677133789064
-0.0014893030644633639
-0.0015052783386355925
-0.0013414786715712462
-0.0010286661833287802
-0.0006158203662504022
-0.00016263551956779515
0.0002693070357683915
0.0006253853232214406
0.0008654977157521391
0.0009692307690374786
0.00093788888597618
0.0007931183063994426
0.0005723799660121279
0.0003220141589187649
8.901982895145885e-05
-8.711745710002738e-05
-0.00018120829047736848
-0.0001866164311376274
-0.00011624194809977673
4.4304545524163415e-18
0.00012086524815921169
0.00020175721235563896
0.00020370513625871575
0.0001018309977663739
-0.0001081983624073159
-0.0004069849298871765
-0.000752262827715167
-0.0010839754761094165
-0.0013330479714198395
-0.001432693268599457
-0.0013305906788539277
-0.0010000041845359933
-0.00044792228719238707
0.0002813835466916544
0.0011083971864643172
0.0019262202041645127
0.00261360353716886
0.003051644535235487
0.0031419592531228765
0.002823730382734004
0.0020869785183292703
0.0009797409611408234
-0.00039245463794299084
-0.0018754424547430706
-0.0032830607040254954
-0.004419883465389871
-0.005107336027299818
-0.0052097957098379
-0.004657021420662414
-0.003459494930591696
-0.0017139935672475768
0.0004021239580080437
0.0026479852734308663
0.004746135370449045
0.006416388064145891
0.007412513916297958
0.007557026804266397
0.006769283070228022
0.005082706061972614
0.002648149940835103
-0.00027790974080758814
-0.0033597257943713725
-0.0062205674615514635
-0.008488615716302474
-0.00984489019806377
-0.010067063267581318
-0.009063232842033654
-0.006890736247911592
-0.003756795874437859
1.3242312835333232e-17
0.003945930776793092
0.007602271920950966
0.010503522623970474
0.012256630790995291
0.012593675678364481
0.011410992091989204
0.008789174716365684
0.004990633280992321
0.0004341177273397012
-0.00435144081038868
-0.008788695852121149
-0.01232200511256417
-0.014487330959008634
-0.014973084338315183
-0.01366393320708325
-0.010661502808457816
-0.006278636026736771
-0.0010071301375062347
0.0045377805918863775
0.009689895557807655
0.013812857775512003
0.016379408974946424
0.01703913792576935
0.01566597200248135
0.012379000133283866
0.007533417797026078
0.0016820632713786976
-0.004488288480192531
-0.010238461032954033
-0.014866451613586623
-0.01779406910739255
-0.018639829962838306
-0.01726884013139565
-0.013813113708353506
-0.008659365288798761
-0.0024053231681858767
0.00421045554707095
0.010396925939178682
0.015406352874017227
0.018625819789348835
0.019653114628377096
0.018347490205972893
0.014848830502316529
0.009562620526028728
0.0031123366037905656
-0.0037350805712894003
-0.010161644282495889
-0.015397349188785362
-0.018813663631245262
0.9799994471153496
-0.018813663631245262
-0.015397349188785362
-0.010161644282495889
-0.0037350805712894003
0.0031123366037905656
0.009562620526028728
0.014848830502316529
0.018347490205972893
0.019653114628377096
0.018625819789348835
0.01540635287401723
0.010396925939178684
0.00421045554707095
-0.0024053231681858767
-0.008659365288798761
-0.013813113708353508
-0.017268840131395652
-0.01863982996283831
-0.01779406910739255
-0.014866451613586623
-0.010238461032954033
-0.004488288480192532
0.0016820632713786979
0.0075334177970260785
0.012379000133283868
0.01566597200248135
0.017039137925769353
0.016379408974946427
0.013812857775512007
0.009689895557807656
0.004537780591886378
-0.0010071301375062347
-0.006278636026736771
-0.01066150280845782
-0.013663933207083255
-0.014973084338315186
-0.014487330959008634
-0.012322005112564174
-0.00878869585212115
-0.0043514408103886805
0.0004341177273397012
0.004990633280992322
0.008789174716365686
0.011410992091989206
0.012593675678364483
0.012256630790995295
0.010503522623970475
0.007602271920950968
0.003945930776793093
1.3242312835333235e-17
-0.0037567958744378605
-0.006890736247911592
-0.009063232842033656
-0.010067063267581321
-0.009844890198063774
-0.008488615716302477
-0.006220567461551466
-0.0033597257943713743
-0.0002779097408075882
0.002648149940835104
0.005082706061972615
0.006769283070228025
0.007557026804266399
0.007412513916297961
0.006416388064145892
0.004746135370449046
0.0026479852734308668
0.0004021239580080439
-0.001713993567247577
-0.003459494930591697
-0.004657021420662416
-0.005209795709837901
-0.00510733602729982
-0.004419883465389873
-0.0032830607040254963
-0.0018754424547430715
-0.00039245463794299095
0.0009797409611408236
0.0020869785183292707
0.002823730382734005
0.0031419592531228774
0.0030516445352354875
0.00261360353716886
0.0019262202041645143
0.0011083971864643174
0.0002813835466916546
-0.0004479222871923873
-0.001000004184535994
-0.0013305906788539284
-0.001432693268599457
-0.0013330479714198406
-0.001083975476109417
-0.0007522628277151674
-0.0004069849298871765
-0.00010819836240731599
0.00010183099776637395
0.00020370513625871583
0.00020175721235563896
0.00012086524815921177
4.430454552416344e-18
-0.00011624194809977673
-0.00018661643113762757
-0.0001812082904773686
-8.711745710002741e-05
8.901982895145885e-05
0.00032201415891876516
0.0005723799660121281
0.0007931183063994429
0.00093788888597618
0.0009692307690374794
0.0008654977157521392
0.0006253853232214407
0.00026930703576839176
-0.00016263551956779529
-0.0006158203662504024
-0.0010286661833287805
-0.0013414786715712475
-0.0015052783386355938
-0.0014893030644633647
-0.0012860677133789064
-0.0009132140088149551
-0.00041184441044064623
0.0001584635696428999
0.0007272937087911238
0.0012226339244263919
0.0015804556164147323
0.0017533132213584644
0.0017167854868904758
0.0014728803529931774
0.0010499444501750985
0.0004990964355553888
-0.00011232613638258842
-0.0007094185234980432
-0.0012192986792435993
-0.0015803631143181571
-0.001749997818600738
-0.0017097560904560725
-0.0014673660444460507
-0.0010553596636924036
-0.0005265631314070997
5.2905652040186556e-05
0.0006121752730971692
0.001084560507980764
0.0014157462041097342
0.0015701876842673652
0.0015349607577871145
0.0013206476955400512
0.0009592416682522916
0.0004994374292087675
-1.2901235897989211e-17
-0.00047787470853562973
-0.0008781985267807455
-0.00115686012722019
-0.0012865201799180622
-0.0012591901939310558
-0.0010862738980844551
-0.0007961856880613926
-0.0004299660943938614
-3.555070988829711e-05
0.0003385112373930836
0.0006490631370686669
0.0008633259845653517
0.0009622882583397597
0.000942164405008661
0.0008138537887493216
0.0006005936865064476
0.0003342210765461331
5.06117002239751e-05
-0.00021506520537383948
-0.00043265625946534175
-0.0005803755862946228
-0.0006468376676855818
-0.0006316079111973739
-0.0005443132181310401
-0.0004025407213902752
-0.000228895265267942
-4.766891971748363e-05
0.00011840818423720443
0.0002509146434022181
0.0003376625000217239
0.00037361705517389255
0.00036078001520433047
0.0003071477006973916
0.00022497274095235556
0.00012863342003306113
3.2442188982834324e-05
-5.129633013701034e-05
-0.0001137305611279634
-0.00015025589681509294
-0.00016060985969862726
-0.00014832596642853641
-0.00011969167886071977
-8.241532489686744e-05
-4.42314721981831e-05
-1.1662972462887397e-05
1.0884908306566921e-05
2.1588553068959022e-05
2.1195699605086875e-05
1.2584539701953098e-05
9.14220780657342e-19
-1.1882064641932607e-05
-1.8895307053143624e-05
-1.8170858441045198e-05
-8.649948456785058e-06
8.7503006486432e-06
3.132962878932094e-05
5.510919814546918e-05
7.555295035781993e-05
8.837959898194117e-05
9.032902514133573e-05
7.975844705189601e-05
5.6974295341929895e-05
2.4249792375293053e-05
-1.4471443858735654e-05
-5.413675240208757e-05
-8.93219539157421e-05
-0.00011503110441574685
-0.00012743725434556202
-0.00012445406769410209
-0.00010605533528465358
-7.429814420258179e-05
-3.304965972235112e-05
1.2539519261891397e-05
5.6736888797449966e-05
9.400266997802404e-05
0.00011972780155226862
0.0001308335025296209
0.00012615276626409288
0.00010654683928979175
7.474793563011903e-05
3.495752632682734e-05
-7.737842449928078e-06
-4.804847531828383e-05
-8.116632014619315e-05
-0.00010336110402048754
-0.0001124120889177174
-0.00010782520913513551
-9.081654046002239e-05
-6.407535294225249e-05
-3.1348900489454486e-05
3.087207842971491e-06
3.4997333274560554e-05
6.0716145956616435e-05
7.7573768994304e-05
8.416653376736666e-05
8.044773082030577e-05
6.763831501434982e-05
4.7981466450043114e-05
2.4384044927766208e-05
-2.4075533824311275e-18
-2.2185456933529772e-05
-3.9716587949142935e-05
-5.092993963507401e-05
-5.509282987658453e-05
-5.240984802529431e-05
-4.390799327567739e-05
-3.122642547523623e-05
-1.634732757757205e-05
-1.3090159768553311e-06
1.2058967956944766e-05
2.2345783986226792e-05
2.869189281990392e-05
3.0834726602501585e-05
2.9070672774917056e-05
2.4147744278978253e-05
1.7111311629943648e-05
9.12931262012378e-06
1.3232475341829684e-06
-5.372555540184681e-06
-1.0307527311419621e-05
-1.3159559189832565e-05
-1.3928409626188192e-05
-1.2885672533793783e-05
-1.0494419938024382e-05
-7.3143162372584805e-06
-3.908008897960631e-06
-7.622405755132436e-07
1.7669596189574175e-06
3.4806262192851804e-06
4.3353564788626505e-06
4.418778212978165e-06
3.909672685443349e-06
3.031671239254611e-06
2.0090538687807e-06
1.0314415308291335e-06
2.3156029710717154e-07
-3.226745502142116e-07
-6.232046344819318e-07
-7.074794937856616e-07
-6.392680959928109e-07
-4.892558758278099e-07
-3.1923551459315295e-07
-1.7227268467030721e-07
-6.955115113159908e-08
-1.3043435893058523e-08
7.981332601942811e-09
9.124341200520373e-09
4.080997377054302e-09
6.210672892303589e-10
8.440377200103386e-34